Data from 2025-12-03_xpw_interference_micrometer_637_FLMS141361__7__657.txt Node

Date: Wed Dec 03 15:56:06 MST 2025
User: james
Spectrometer: FLMS14136
Trigger mode: 0
Integration Time (sec): 1.000000E-1
Scans to average: 1
Electric dark correction enabled: true
Nonlinearity correction enabled: false
Boxcar width: 0
XAxis mode: Wavelengths
Number of Pixels in Spectrum: 2048
>>>>>Begin Spectral Data<<<<<
339.315	-69.1
339.697	-69.1
340.079	-69.1
340.461	-107.4
340.843	-125.28
341.225	-43.57
341.607	-66.55
341.989	-132.94
342.371	-138.04
342.752	-163.58
343.134	4.95
343.516	-20.59
343.897	-33.35
344.279	-56.33
344.661	27.93
345.042	101.98
345.423	109.64
345.805	66.23
346.186	40.69
346.567	112.19
346.949	191.34
347.33	199
347.711	178.58
348.092	196.45
348.473	262.84
348.854	250.07
349.235	234.75
349.616	234.75
349.997	319.01
350.378	239.86
350.758	347.1
351.139	334.33
351.52	283.27
351.9	334.33
352.281	393.06
352.661	349.65
353.042	280.71
353.422	372.63
353.803	377.74
354.183	316.46
354.563	359.87
354.943	393.06
355.324	367.53
355.704	344.55
356.084	375.19
356.464	436.47
356.844	398.17
357.224	410.93
357.603	367.53
357.983	372.63
358.363	403.27
358.743	364.97
359.122	390.51
359.502	313.91
359.882	357.31
360.261	280.71
360.641	357.31
361.02	385.4
361.399	265.39
361.779	329.23
362.158	387.95
362.537	395.61
362.916	393.06
363.296	364.97
363.675	308.8
364.054	385.4
364.433	296.03
364.812	372.63
365.19	331.78
365.569	334.33
365.948	403.27
366.327	283.27
366.705	382.85
367.084	352.21
367.463	382.85
367.841	377.74
368.22	321.57
368.598	362.42
368.977	362.42
369.355	403.27
369.733	385.4
370.111	347.1
370.49	311.35
370.868	393.06
371.246	372.63
371.624	331.78
372.002	354.76
372.38	377.74
372.758	352.21
373.136	372.63
373.513	316.46
373.891	433.91
374.269	349.65
374.646	418.59
375.024	296.03
375.402	339.44
375.779	296.03
376.157	364.97
376.534	400.72
376.911	329.23
377.289	324.12
377.666	329.23
378.043	336.89
378.42	405.83
378.797	410.93
379.175	408.38
379.552	344.55
379.929	308.8
380.305	316.46
380.682	375.19
381.059	370.08
381.436	326.67
381.813	400.72
382.189	380.29
382.566	321.57
382.943	308.8
383.319	375.19
383.696	349.65
384.072	410.93
384.448	352.21
384.825	390.51
385.201	367.53
385.577	400.72
385.953	359.87
386.329	418.59
386.706	329.23
387.082	390.51
387.458	339.44
387.834	298.59
388.209	359.87
388.585	380.29
388.961	370.08
389.337	339.44
389.713	390.51
390.088	405.83
390.464	339.44
390.839	354.76
391.215	410.93
391.59	385.4
391.966	352.21
392.341	349.65
392.716	418.59
393.092	380.29
393.467	377.74
393.842	311.35
394.217	329.23
394.592	308.8
394.967	370.08
395.342	390.51
395.717	387.95
396.092	400.72
396.467	359.87
396.841	380.29
397.216	380.29
397.591	390.51
397.965	380.29
398.34	354.76
398.714	390.51
399.089	395.61
399.463	364.97
399.838	364.97
400.212	296.03
400.586	339.44
400.961	352.21
401.335	311.35
401.709	357.31
402.083	344.55
402.457	431.36
402.831	398.17
403.205	372.63
403.579	267.95
403.953	275.61
404.326	390.51
404.7	400.72
405.074	398.17
405.447	380.29
405.821	410.93
406.195	329.23
406.568	395.61
406.942	410.93
407.315	344.55
407.688	400.72
408.062	354.76
408.435	393.06
408.808	344.55
409.181	316.46
409.554	334.33
409.927	347.1
410.3	377.74
410.673	352.21
411.046	441.57
411.419	387.95
411.792	359.87
412.165	390.51
412.537	382.85
412.91	359.87
413.283	339.44
413.655	308.8
414.028	410.93
414.4	428.81
414.773	395.61
415.145	370.08
415.517	354.76
415.889	344.55
416.262	385.4
416.634	408.38
417.006	354.76
417.378	311.35
417.75	296.03
418.122	321.57
418.494	329.23
418.866	296.03
419.238	377.74
419.609	451.79
419.981	454.34
420.353	359.87
420.725	313.91
421.096	380.29
421.468	390.51
421.839	403.27
422.211	390.51
422.582	367.53
422.953	426.25
423.325	390.51
423.696	393.06
424.067	370.08
424.438	395.61
424.809	352.21
425.18	462
425.551	459.45
425.922	421.15
426.293	387.95
426.664	393.06
427.035	308.8
427.406	364.97
427.776	441.57
428.147	405.83
428.518	316.46
428.888	354.76
429.259	382.85
429.629	492.64
429.999	418.59
430.37	380.29
430.74	459.45
431.11	449.23
431.481	319.01
431.851	375.19
432.221	405.83
432.591	426.25
432.961	380.29
433.331	400.72
433.701	382.85
434.071	270.5
434.441	428.81
434.81	354.76
435.18	370.08
435.55	433.91
435.919	413.49
436.289	416.04
436.658	413.49
437.028	385.4
437.397	428.81
437.767	387.95
438.136	393.06
438.505	321.57
438.875	449.23
439.244	431.36
439.613	421.15
439.982	393.06
440.351	382.85
440.72	456.9
441.089	436.47
441.458	426.25
441.827	418.59
442.196	352.21
442.564	500.3
442.933	428.81
443.302	403.27
443.67	477.32
444.039	418.59
444.407	364.97
444.776	390.51
445.144	408.38
445.513	403.27
445.881	436.47
446.249	367.53
446.617	313.91
446.986	441.57
447.354	444.13
447.722	382.85
448.09	354.76
448.458	352.21
448.826	467.11
449.194	408.38
449.561	408.38
449.929	362.42
450.297	316.46
450.665	393.06
451.032	400.72
451.4	400.72
451.767	413.49
452.135	380.29
452.502	408.38
452.87	446.68
453.237	431.36
453.604	439.02
453.971	395.61
454.339	441.57
454.706	398.17
455.073	375.19
455.44	405.83
455.807	387.95
456.174	426.25
456.541	400.72
456.908	316.46
457.274	352.21
457.641	334.33
458.008	326.67
458.374	319.01
458.741	364.97
459.108	341.99
459.474	449.23
459.841	380.29
460.207	431.36
460.573	387.95
460.94	387.95
461.306	441.57
461.672	400.72
462.038	390.51
462.404	441.57
462.771	410.93
463.137	410.93
463.503	436.47
463.868	400.72
464.234	431.36
464.6	344.55
464.966	400.72
465.332	398.17
465.697	405.83
466.063	451.79
466.429	433.91
466.794	421.15
467.16	426.25
467.525	428.81
467.89	375.19
468.256	433.91
468.621	370.08
468.986	387.95
469.351	390.51
469.717	387.95
470.082	347.1
470.447	390.51
470.812	380.29
471.177	359.87
471.542	436.47
471.906	359.87
472.271	349.65
472.636	400.72
473.001	380.29
473.365	387.95
473.73	380.29
474.094	451.79
474.459	436.47
474.823	405.83
475.188	395.61
475.552	436.47
475.917	426.25
476.281	398.17
476.645	357.31
477.009	444.13
477.373	403.27
477.737	428.81
478.101	390.51
478.465	462
478.829	459.45
479.193	398.17
479.557	385.4
479.921	349.65
480.284	431.36
480.648	416.04
481.012	359.87
481.375	428.81
481.739	329.23
482.102	370.08
482.466	372.63
482.829	395.61
483.193	385.4
483.556	380.29
483.919	400.72
484.282	495.2
484.645	423.7
485.009	398.17
485.372	426.25
485.735	451.79
486.098	362.42
486.46	382.85
486.823	441.57
487.186	377.74
487.549	416.04
487.912	449.23
488.274	418.59
488.637	400.72
488.999	431.36
489.362	459.45
489.724	416.04
490.087	349.65
490.449	385.4
490.811	416.04
491.174	405.83
491.536	423.7
491.898	375.19
492.26	449.23
492.622	454.34
492.984	398.17
493.346	336.89
493.708	341.99
494.07	354.76
494.432	418.59
494.794	431.36
495.155	385.4
495.517	367.53
495.879	387.95
496.24	390.51
496.602	334.33
496.963	367.53
497.325	349.65
497.686	364.97
498.048	441.57
498.409	495.2
498.77	390.51
499.131	416.04
499.492	387.95
499.854	380.29
500.215	331.78
500.576	380.29
500.937	362.42
501.298	421.15
501.658	441.57
502.019	393.06
502.38	451.79
502.741	393.06
503.101	400.72
503.462	410.93
503.823	428.81
504.183	456.9
504.543	352.21
504.904	319.01
505.264	431.36
505.625	431.36
505.985	459.45
506.345	403.27
506.705	405.83
507.065	426.25
507.426	405.83
507.786	421.15
508.146	387.95
508.505	449.23
508.865	362.42
509.225	372.63
509.585	523.28
509.945	400.72
510.304	390.51
510.664	403.27
511.024	423.7
511.383	492.64
511.743	375.19
512.102	416.04
512.462	382.85
512.821	449.23
513.18	385.4
513.539	403.27
513.899	387.95
514.258	372.63
514.617	385.4
514.976	433.91
515.335	336.89
515.694	416.04
516.053	413.49
516.412	433.91
516.771	403.27
517.129	446.68
517.488	387.95
517.847	403.27
518.205	393.06
518.564	433.91
518.922	413.49
519.281	410.93
519.639	377.74
519.998	459.45
520.356	403.27
520.714	454.34
521.073	462
521.431	410.93
521.789	370.08
522.147	428.81
522.505	367.53
522.863	426.25
523.221	416.04
523.579	441.57
523.937	421.15
524.295	324.12
524.652	408.38
525.01	387.95
525.368	467.11
525.725	431.36
526.083	418.59
526.44	395.61
526.798	441.57
527.155	393.06
527.513	446.68
527.87	395.61
528.227	382.85
528.584	416.04
528.942	490.09
529.299	403.27
529.656	372.63
530.013	408.38
530.37	418.59
530.727	426.25
531.083	413.49
531.44	428.81
531.797	477.32
532.154	410.93
532.511	418.59
532.867	428.81
533.224	462
533.58	387.95
533.937	421.15
534.293	421.15
534.65	441.57
535.006	395.61
535.362	359.87
535.718	375.19
536.075	370.08
536.431	400.72
536.787	372.63
537.143	349.65
537.499	418.59
537.855	451.79
538.211	416.04
538.567	439.02
538.923	426.25
539.278	400.72
539.634	410.93
539.99	382.85
540.345	390.51
540.701	393.06
541.056	390.51
541.412	421.15
541.767	387.95
542.123	390.51
542.478	367.53
542.833	385.4
543.188	349.65
543.544	364.97
543.899	395.61
544.254	421.15
544.609	398.17
544.964	421.15
545.319	408.38
545.674	423.7
546.029	436.47
546.383	400.72
546.738	385.4
547.093	354.76
547.447	377.74
547.802	377.74
548.157	410.93
548.511	423.7
548.866	372.63
549.22	380.29
549.574	436.47
549.929	390.51
550.283	357.31
550.637	382.85
550.991	380.29
551.345	393.06
551.699	370.08
552.053	380.29
552.407	372.63
552.761	364.97
553.115	418.59
553.469	487.54
553.823	416.04
554.176	408.38
554.53	428.81
554.884	421.15
555.237	704.57
555.591	423.7
555.944	467.11
556.298	446.68
556.651	405.83
557.005	370.08
557.358	367.53
557.711	393.06
558.064	367.53
558.417	347.1
558.771	482.43
559.124	436.47
559.477	444.13
559.83	441.57
560.182	410.93
560.535	456.9
560.888	408.38
561.241	418.59
561.594	400.72
561.946	421.15
562.299	474.77
562.651	456.9
563.004	451.79
563.356	354.76
563.709	416.04
564.061	423.7
564.413	398.17
564.766	375.19
565.118	423.7
565.47	428.81
565.822	357.31
566.174	410.93
566.526	362.42
566.878	382.85
567.23	446.68
567.582	441.57
567.934	426.25
568.286	479.88
568.638	367.53
568.989	398.17
569.341	354.76
569.693	408.38
570.044	416.04
570.396	405.83
570.747	431.36
571.098	418.59
571.45	370.08
571.801	403.27
572.152	403.27
572.504	349.65
572.855	339.44
573.206	410.93
573.557	393.06
573.908	444.13
574.259	385.4
574.61	395.61
574.961	436.47
575.311	433.91
575.662	408.38
576.013	321.57
576.364	377.74
576.714	393.06
577.065	413.49
577.415	390.51
577.766	444.13
578.116	472.22
578.467	408.38
578.817	403.27
579.167	436.47
579.518	433.91
579.868	364.97
580.218	441.57
580.568	382.85
580.918	413.49
581.268	433.91
581.618	362.42
581.968	375.19
582.318	408.38
582.668	490.09
583.017	398.17
583.367	444.13
583.717	428.81
584.066	385.4
584.416	375.19
584.765	400.72
585.115	428.81
585.464	431.36
585.814	382.85
586.163	398.17
586.512	441.57
586.862	446.68
587.211	405.83
587.56	418.59
587.909	416.04
588.258	421.15
588.607	439.02
588.956	423.7
589.305	339.44
589.654	408.38
590.002	405.83
590.351	395.61
590.7	423.7
591.048	354.76
591.397	482.43
591.746	382.85
592.094	398.17
592.443	428.81
592.791	352.21
593.139	364.97
593.488	341.99
593.836	349.65
594.184	410.93
594.532	398.17
594.88	403.27
595.228	336.89
595.576	431.36
595.924	354.76
596.272	431.36
596.62	367.53
596.968	410.93
597.316	451.79
597.664	428.81
598.011	456.9
598.359	405.83
598.706	390.51
599.054	334.33
599.402	390.51
599.749	382.85
600.096	459.45
600.444	431.36
600.791	433.91
601.138	375.19
601.485	362.42
601.833	354.76
602.18	416.04
602.527	403.27
602.874	377.74
603.221	367.53
603.568	387.95
603.914	418.59
604.261	377.74
604.608	416.04
604.955	359.87
605.301	410.93
605.648	426.25
605.995	456.9
606.341	357.31
606.688	380.29
607.034	375.19
607.38	382.85
607.727	382.85
608.073	400.72
608.419	370.08
608.765	372.63
609.112	372.63
609.458	459.45
609.804	410.93
610.15	370.08
610.496	393.06
610.842	382.85
611.187	375.19
611.533	400.72
611.879	431.36
612.225	433.91
612.57	459.45
612.916	428.81
613.261	359.87
613.607	446.68
613.952	408.38
614.298	375.19
614.643	380.29
614.989	385.4
615.334	372.63
615.679	446.68
616.024	403.27
616.369	390.51
616.714	413.49
617.059	377.74
617.404	413.49
617.749	393.06
618.094	385.4
618.439	393.06
618.784	416.04
619.129	423.7
619.473	413.49
619.818	398.17
620.163	357.31
620.507	439.02
620.852	372.63
621.196	372.63
621.54	400.72
621.885	426.25
622.229	395.61
622.573	393.06
622.918	387.95
623.262	456.9
623.606	469.66
623.95	382.85
624.294	377.74
624.638	405.83
624.982	413.49
625.326	359.87
625.67	321.57
626.013	370.08
626.357	418.59
626.701	408.38
627.044	472.22
627.388	403.27
627.731	456.9
628.075	354.76
628.418	385.4
628.762	375.19
629.105	398.17
629.448	459.45
629.792	428.81
630.135	382.85
630.478	393.06
630.821	380.29
631.164	364.97
631.507	426.25
631.85	403.27
632.193	352.21
632.536	380.29
632.879	387.95
633.221	418.59
633.564	403.27
633.907	387.95
634.249	395.61
634.592	410.93
634.935	344.55
635.277	413.49
635.619	364.97
635.962	398.17
636.304	410.93
636.646	413.49
636.989	413.49
637.331	362.42
637.673	416.04
638.015	426.25
638.357	408.38
638.699	377.74
639.041	398.17
639.383	382.85
639.725	387.95
640.067	385.4
640.408	375.19
640.75	426.25
641.092	403.27
641.433	410.93
641.775	403.27
642.116	454.34
642.458	423.7
642.799	408.38
643.141	344.55
643.482	444.13
643.823	403.27
644.164	428.81
644.506	405.83
644.847	382.85
645.188	418.59
645.529	387.95
645.87	395.61
646.211	423.7
646.552	372.63
646.893	375.19
647.233	441.57
647.574	423.7
647.915	377.74
648.255	464.56
648.596	347.1
648.937	395.61
649.277	398.17
649.618	390.51
649.958	362.42
650.298	436.47
650.639	377.74
650.979	329.23
651.319	364.97
651.659	413.49
651.999	418.59
652.339	410.93
652.679	390.51
653.019	423.7
653.359	347.1
653.699	416.04
654.039	385.4
654.379	339.44
654.719	423.7
655.058	370.08
655.398	403.27
655.737	423.7
656.077	416.04
656.416	413.49
656.756	303.69
657.095	347.1
657.435	418.59
657.774	382.85
658.113	367.53
658.452	444.13
658.792	431.36
659.131	324.12
659.47	306.25
659.809	344.55
660.148	413.49
660.487	364.97
660.826	367.53
661.164	426.25
661.503	377.74
661.842	439.02
662.181	367.53
662.519	416.04
662.858	372.63
663.196	390.51
663.535	385.4
663.873	421.15
664.212	428.81
664.55	464.56
664.888	364.97
665.226	336.89
665.565	400.72
665.903	589.67
666.241	444.13
666.579	403.27
666.917	405.83
667.255	364.97
667.593	408.38
667.931	484.98
668.268	372.63
668.606	387.95
668.944	393.06
669.282	370.08
669.619	474.77
669.957	393.06
670.294	426.25
670.632	367.53
670.969	329.23
671.307	362.42
671.644	439.02
671.981	347.1
672.318	364.97
672.656	421.15
672.993	393.06
673.33	390.51
673.667	375.19
674.004	382.85
674.341	339.44
674.678	347.1
675.015	395.61
675.351	449.23
675.688	367.53
676.025	380.29
676.362	431.36
676.698	403.27
677.035	364.97
677.371	380.29
677.708	395.61
678.044	344.55
678.38	403.27
678.717	367.53
679.053	380.29
679.389	398.17
679.725	428.81
680.062	428.81
680.398	456.9
680.734	395.61
681.07	426.25
681.406	359.87
681.742	359.87
682.077	403.27
682.413	336.89
682.749	336.89
683.085	359.87
683.42	375.19
683.756	408.38
684.091	364.97
684.427	324.12
684.762	431.36
685.098	377.74
685.433	390.51
685.768	362.42
686.104	372.63
686.439	416.04
686.774	364.97
687.109	472.22
687.444	428.81
687.779	433.91
688.114	413.49
688.449	393.06
688.784	354.76
689.119	416.04
689.454	357.31
689.789	398.17
690.123	439.02
690.458	423.7
690.792	393.06
691.127	410.93
691.461	405.83
691.796	421.15
692.13	490.09
692.465	382.85
692.799	375.19
693.133	352.21
693.467	303.69
693.802	446.68
694.136	398.17
694.47	413.49
694.804	382.85
695.138	377.74
695.472	393.06
695.806	375.19
696.139	418.59
696.473	326.67
696.807	385.4
697.141	413.49
697.474	382.85
697.808	416.04
698.141	446.68
698.475	367.53
698.808	428.81
699.142	423.7
699.475	439.02
699.808	418.59
700.142	446.68
700.475	395.61
700.808	398.17
701.141	390.51
701.474	426.25
701.807	377.74
702.14	347.1
702.473	421.15
702.806	390.51
703.139	418.59
703.472	441.57
703.804	375.19
704.137	380.29
704.47	395.61
704.802	385.4
705.135	400.72
705.467	469.66
705.8	416.04
706.132	382.85
706.464	377.74
706.797	421.15
707.129	359.87
707.461	398.17
707.793	352.21
708.125	410.93
708.457	395.61
708.789	451.79
709.121	421.15
709.453	367.53
709.785	334.33
710.117	316.46
710.449	431.36
710.781	451.79
711.112	354.76
711.444	398.17
711.775	344.55
712.107	421.15
712.438	359.87
712.77	413.49
713.101	390.51
713.433	362.42
713.764	410.93
714.095	395.61
714.426	372.63
714.757	390.51
715.089	444.13
715.42	359.87
715.751	341.99
716.082	372.63
716.412	329.23
716.743	444.13
717.074	426.25
717.405	387.95
717.736	428.81
718.066	324.12
718.397	352.21
718.727	408.38
719.058	467.11
719.388	405.83
719.719	367.53
720.049	377.74
720.38	410.93
720.71	413.49
721.04	372.63
721.37	344.55
721.7	359.87
722.031	410.93
722.361	408.38
722.691	382.85
723.021	362.42
723.35	370.08
723.68	431.36
724.01	380.29
724.34	387.95
724.67	408.38
724.999	364.97
725.329	390.51
725.658	354.76
725.988	431.36
726.317	380.29
726.647	326.67
726.976	421.15
727.306	444.13
727.635	375.19
727.964	467.11
728.293	426.25
728.622	467.11
728.952	382.85
729.281	341.99
729.61	393.06
729.939	362.42
730.267	423.7
730.596	418.59
730.925	444.13
731.254	352.21
731.583	377.74
731.911	377.74
732.24	436.47
732.568	326.67
732.897	331.78
733.225	405.83
733.554	462
733.882	393.06
734.21	390.51
734.539	444.13
734.867	423.7
735.195	334.33
735.523	367.53
735.851	400.72
736.179	285.82
736.507	377.74
736.835	398.17
737.163	400.72
737.491	380.29
737.819	324.12
738.147	421.15
738.474	410.93
738.802	431.36
739.13	426.25
739.457	449.23
739.785	390.51
740.112	385.4
740.44	359.87
740.767	387.95
741.094	359.87
741.422	405.83
741.749	382.85
742.076	380.29
742.403	375.19
742.73	395.61
743.057	382.85
743.384	362.42
743.711	370.08
744.038	449.23
744.365	418.59
744.692	449.23
745.018	362.42
745.345	380.29
745.672	370.08
745.998	364.97
746.325	405.83
746.651	428.81
746.978	421.15
747.304	462
747.631	357.31
747.957	377.74
748.283	364.97
748.61	385.4
748.936	405.83
749.262	359.87
749.588	370.08
749.914	367.53
750.24	382.85
750.566	439.02
750.892	416.04
751.218	416.04
751.543	416.04
751.869	387.95
752.195	395.61
752.521	387.95
752.846	439.02
753.172	357.31
753.497	354.76
753.823	357.31
754.148	405.83
754.473	395.61
754.799	421.15
755.124	367.53
755.449	456.9
755.774	382.85
756.1	413.49
756.425	416.04
756.75	395.61
757.075	362.42
757.4	454.34
757.724	398.17
758.049	444.13
758.374	347.1
758.699	393.06
759.024	393.06
759.348	441.57
759.673	413.49
759.997	441.57
760.322	382.85
760.646	403.27
760.971	349.65
761.295	454.34
761.619	400.72
761.944	449.23
762.268	464.56
762.592	482.43
762.916	515.62
763.24	538.6
763.564	472.22
763.888	418.59
764.212	492.64
764.536	541.16
764.86	617.76
765.184	747.98
765.508	845.01
765.831	855.22
766.155	1115.67
766.478	959.91
766.802	850.12
767.126	638.18
767.449	750.53
767.772	860.33
768.096	1115.67
768.419	1350.58
768.742	1567.61
769.066	1634
769.389	1595.7
769.712	1513.99
770.035	1365.9
770.358	1062.05
770.681	952.25
771.004	1090.13
771.327	1355.68
771.65	1807.63
771.972	2172.77
772.295	2565.99
772.618	2905.58
772.941	2890.26
773.263	2320.86
773.586	1812.74
773.908	1539.53
774.231	1475.69
774.553	1386.32
774.875	1677.41
775.198	2456.19
775.52	2956.65
775.842	3191.56
776.164	3278.38
776.487	3086.87
776.809	2578.75
777.131	2098.72
777.453	1470.59
777.775	1319.94
778.096	1585.49
778.418	2139.57
778.74	2971.97
779.062	4200.15
779.384	5420.66
779.705	5594.29
780.027	5060.64
780.348	4159.29
780.67	3270.72
780.991	2445.98
781.313	1965.94
781.634	1930.19
781.955	2520.02
782.277	3526.06
782.598	4504
782.919	5734.73
783.24	6390.95
783.561	6051.35
783.882	5752.6
784.203	4899.77
784.524	3564.36
784.845	2466.4
785.166	2006.8
785.487	2489.38
785.807	3492.86
786.128	4292.07
786.449	5443.64
786.769	6888.85
787.09	8042.98
787.41	7677.85
787.731	5870.06
788.051	3965.24
788.372	2629.82
788.692	2134.46
789.012	2410.23
789.332	3079.21
789.653	4373.78
789.973	5944.1
790.293	7851.48
790.613	8729.84
790.933	9084.76
791.253	8448.97
791.573	6585
791.893	4703.16
792.212	3074.11
792.532	2282.56
792.852	2346.39
793.171	2946.44
793.491	4243.55
793.811	5696.43
794.13	7328.04
794.45	7695.72
794.769	7394.42
795.088	6562.02
795.408	5116.81
795.727	3743.09
796.046	2553.22
796.365	2177.87
796.684	2502.15
797.004	3730.33
797.323	5617.27
797.642	7677.85
797.96	9853.33
798.279	10813.4
798.598	10818.5
798.917	9327.33
799.236	7088.02
799.554	4698.06
799.873	3002.61
800.192	1897
800.51	1687.62
800.829	2024.67
801.147	2821.32
801.466	3965.24
801.784	5591.74
802.102	6528.83
802.421	6472.65
802.739	5982.41
803.057	4828.28
803.375	3778.84
803.693	2806
804.011	1930.19
804.329	1511.44
804.647	1679.96
804.965	2152.34
805.283	3007.72
805.601	4062.26
805.918	5073.4
806.236	5346.61
806.554	5474.28
806.871	5147.45
807.189	4304.84
807.507	3227.31
807.824	2400.02
808.141	1559.95
808.459	1166.73
808.776	1159.07
809.093	1483.35
809.411	1958.28
809.728	2543
810.045	3275.82
810.362	3600.1
810.679	3638.4
810.996	3191.56
811.313	2586.41
811.63	2154.89
811.947	1577.83
812.264	1130.99
812.58	1041.62
812.897	1115.67
813.214	1544.63
813.53	1986.37
813.847	2803.45
814.163	3342.21
814.48	3260.5
814.796	3137.94
815.113	3012.83
815.429	2471.51
815.745	1713.16
816.061	1212.69
816.378	855.22
816.694	824.58
817.01	834.8
817.326	949.7
817.642	1215.25
817.958	1521.65
818.274	1843.38
818.59	2277.45
818.905	2085.95
819.221	1866.36
819.537	1524.21
819.852	1251
820.168	1049.28
820.484	824.58
820.799	740.32
821.115	717.34
821.43	740.32
821.745	924.16
822.061	1153.97
822.376	1460.37
822.691	1529.31
823.006	1761.67
823.322	1588.04
823.637	1462.93
823.952	1350.58
824.267	1087.58
824.582	924.16
824.897	750.53
825.211	630.52
825.526	615.2
825.841	541.16
826.156	602.44
826.47	704.57
826.785	913.95
827.1	931.82
827.414	1069.71
827.729	1085.03
828.043	1028.85
828.357	919.06
828.672	707.13
828.986	612.65
829.3	548.82
829.614	541.16
829.929	599.88
830.243	579.46
830.557	630.52
830.871	750.53
831.185	839.9
831.499	924.16
831.812	985.44
832.126	939.48
832.44	862.88
832.754	732.66
833.067	638.18
833.381	633.08
833.695	559.03
834.008	459.45
834.322	525.84
834.635	536.05
834.948	538.6
835.262	566.69
835.575	594.78
835.888	576.9
836.201	689.25
836.515	745.43
836.828	699.47
837.141	707.13
837.454	668.83
837.767	530.94
838.08	477.32
838.392	479.88
838.705	451.79
839.018	459.45
839.331	441.57
839.643	469.66
839.956	487.54
840.269	528.39
840.581	543.71
840.894	559.03
841.206	477.32
841.519	643.29
841.831	515.62
842.143	431.36
842.455	372.63
842.768	398.17
843.08	451.79
843.392	418.59
843.704	400.72
844.016	372.63
844.328	405.83
844.64	446.68
844.952	456.9
845.263	497.75
845.575	479.88
845.887	454.34
846.199	469.66
846.51	459.45
846.822	454.34
847.133	426.25
847.445	428.81
847.756	451.79
848.068	410.93
848.379	387.95
848.69	449.23
849.002	426.25
849.313	405.83
849.624	385.4
849.935	441.57
850.246	405.83
850.557	398.17
850.868	444.13
851.179	403.27
851.49	364.97
851.801	377.74
852.112	370.08
852.422	393.06
852.733	296.03
853.044	413.49
853.354	400.72
853.665	431.36
853.975	433.91
854.286	451.79
854.596	413.49
854.906	416.04
855.217	339.44
855.527	367.53
855.837	385.4
856.147	444.13
856.458	444.13
856.768	364.97
857.078	339.44
857.388	393.06
857.698	393.06
858.007	347.1
858.317	444.13
858.627	426.25
858.937	352.21
859.246	398.17
859.556	329.23
859.866	393.06
860.175	505.41
860.485	418.59
860.794	390.51
861.104	410.93
861.413	403.27
861.722	326.67
862.032	359.87
862.341	364.97
862.65	410.93
862.959	423.7
863.268	426.25
863.577	370.08
863.886	372.63
864.195	441.57
864.504	387.95
864.813	347.1
865.122	380.29
865.43	408.38
865.739	375.19
866.048	375.19
866.356	405.83
866.665	380.29
866.973	395.61
867.282	418.59
867.59	382.85
867.899	341.99
868.207	405.83
868.515	367.53
868.823	298.59
869.132	347.1
869.44	387.95
869.748	433.91
870.056	359.87
870.364	329.23
870.672	370.08
870.98	395.61
871.288	367.53
871.595	405.83
871.903	441.57
872.211	441.57
872.518	362.42
872.826	467.11
873.134	331.78
873.441	344.55
873.749	359.87
874.056	362.42
874.363	372.63
874.671	357.31
874.978	352.21
875.285	405.83
875.592	372.63
875.9	413.49
876.207	380.29
876.514	403.27
876.821	428.81
877.128	377.74
877.435	362.42
877.741	354.76
878.048	439.02
878.355	385.4
878.662	375.19
878.968	408.38
879.275	439.02
879.582	426.25
879.888	393.06
880.195	357.31
880.501	354.76
880.807	400.72
881.114	398.17
881.42	408.38
881.726	359.87
882.032	377.74
882.339	385.4
882.645	400.72
882.951	375.19
883.257	380.29
883.563	395.61
883.869	387.95
884.174	349.65
884.48	382.85
884.786	380.29
885.092	439.02
885.397	390.51
885.703	431.36
886.009	382.85
886.314	308.8
886.62	354.76
886.925	370.08
887.231	390.51
887.536	362.42
887.841	370.08
888.146	362.42
888.452	451.79
888.757	410.93
889.062	393.06
889.367	349.65
889.672	362.42
889.977	344.55
890.282	375.19
890.587	382.85
890.892	319.01
891.196	428.81
891.501	387.95
891.806	377.74
892.11	311.35
892.415	329.23
892.72	395.61
893.024	370.08
893.328	446.68
893.633	413.49
893.937	472.22
894.242	357.31
894.546	400.72
894.85	413.49
895.154	413.49
895.458	400.72
895.762	431.36
896.066	390.51
896.37	423.7
896.674	377.74
896.978	364.97
897.282	462
897.586	375.19
897.89	362.42
898.193	344.55
898.497	408.38
898.801	456.9
899.104	387.95
899.408	423.7
899.711	393.06
900.014	405.83
900.318	387.95
900.621	400.72
900.924	372.63
901.228	352.21
901.531	372.63
901.834	446.68
902.137	451.79
902.44	382.85
902.743	393.06
903.046	393.06
903.349	347.1
903.652	334.33
903.955	362.42
904.257	372.63
904.56	449.23
904.863	364.97
905.165	393.06
905.468	387.95
905.77	423.7
906.073	416.04
906.375	326.67
906.678	413.49
906.98	405.83
907.282	393.06
907.584	326.67
907.887	344.55
908.189	393.06
908.491	347.1
908.793	423.7
909.095	410.93
909.397	418.59
909.699	382.85
910.001	385.4
910.302	367.53
910.604	370.08
910.906	395.61
911.208	362.42
911.509	387.95
911.811	359.87
912.112	431.36
912.414	398.17
912.715	377.74
913.017	380.29
913.318	410.93
913.619	359.87
913.92	375.19
914.222	375.19
914.523	421.15
914.824	482.43
915.125	390.51
915.426	418.59
915.727	444.13
916.028	390.51
916.329	349.65
916.63	416.04
916.93	400.72
917.231	423.7
917.532	400.72
917.832	344.55
918.133	398.17
918.434	344.55
918.734	382.85
919.034	431.36
919.335	326.67
919.635	410.93
919.935	326.67
920.236	398.17
920.536	354.76
920.836	375.19
921.136	349.65
921.436	487.54
921.736	375.19
922.036	387.95
922.336	362.42
922.636	431.36
922.936	357.31
923.236	377.74
923.535	410.93
923.835	382.85
924.135	416.04
924.434	354.76
924.734	375.19
925.033	364.97
925.333	377.74
925.632	439.02
925.932	362.42
926.231	372.63
926.53	336.89
926.83	431.36
927.129	426.25
927.428	454.34
927.727	377.74
928.026	421.15
928.325	359.87
928.624	367.53
928.923	347.1
929.222	385.4
929.52	421.15
929.819	375.19
930.118	380.29
930.417	436.47
930.715	393.06
931.014	416.04
931.312	510.52
931.611	421.15
931.909	362.42
932.207	352.21
932.506	306.25
932.804	405.83
933.102	349.65
933.401	393.06
933.699	367.53
933.997	416.04
934.295	336.89
934.593	375.19
934.891	413.49
935.189	400.72
935.487	428.81
935.784	446.68
936.082	398.17
936.38	393.06
936.677	405.83
936.975	344.55
937.273	377.74
937.57	395.61
937.868	413.49
938.165	433.91
938.463	387.95
938.76	375.19
939.057	367.53
939.354	357.31
939.652	321.57
939.949	344.55
940.246	331.78
940.543	395.61
940.84	456.9
941.137	393.06
941.434	377.74
941.731	357.31
942.028	331.78
942.324	306.25
942.621	387.95
942.918	416.04
943.214	441.57
943.511	362.42
943.807	405.83
944.104	400.72
944.4	377.74
944.697	364.97
944.993	301.14
945.29	408.38
945.586	395.61
945.882	400.72
946.178	408.38
946.474	423.7
946.77	354.76
947.066	428.81
947.362	359.87
947.658	370.08
947.954	372.63
948.25	311.35
948.546	400.72
948.842	431.36
949.137	329.23
949.433	347.1
949.729	347.1
950.024	385.4
950.32	390.51
950.615	380.29
950.91	385.4
951.206	380.29
951.501	433.91
951.796	380.29
952.092	349.65
952.387	341.99
952.682	329.23
952.977	377.74
953.272	395.61
953.567	431.36
953.862	403.27
954.157	375.19
954.452	375.19
954.747	393.06
955.041	370.08
955.336	423.7
955.631	423.7
955.925	347.1
956.22	408.38
956.514	395.61
956.809	387.95
957.103	357.31
957.398	400.72
957.692	329.23
957.986	403.27
958.281	395.61
958.575	451.79
958.869	370.08
959.163	359.87
959.457	336.89
959.751	377.74
960.045	349.65
960.339	344.55
960.633	380.29
960.927	446.68
961.221	390.51
961.514	395.61
961.808	418.59
962.102	349.65
962.395	306.25
962.689	375.19
962.982	367.53
963.276	349.65
963.569	390.51
963.862	364.97
964.156	367.53
964.449	436.47
964.742	364.97
965.035	410.93
965.328	352.21
965.622	395.61
965.915	418.59
966.208	357.31
966.5	319.01
966.793	352.21
967.086	469.66
967.379	446.68
967.672	364.97
967.964	364.97
968.257	311.35
968.55	390.51
968.842	413.49
969.135	362.42
969.427	367.53
969.72	387.95
970.012	405.83
970.304	403.27
970.597	377.74
970.889	416.04
971.181	339.44
971.473	367.53
971.765	408.38
972.057	400.72
972.349	398.17
972.641	395.61
972.933	395.61
973.225	436.47
973.517	451.79
973.809	416.04
974.1	347.1
974.392	413.49
974.684	418.59
974.975	436.47
975.267	347.1
975.558	380.29
975.85	408.38
976.141	477.32
976.432	459.45
976.724	436.47
977.015	421.15
977.306	359.87
977.597	382.85
977.888	370.08
978.179	301.14
978.47	349.65
978.761	339.44
979.052	352.21
979.343	426.25
979.634	413.49
979.925	344.55
980.215	380.29
980.506	362.42
980.797	423.7
981.087	362.42
981.378	393.06
981.668	436.47
981.959	418.59
982.249	393.06
982.54	341.99
982.83	357.31
983.12	413.49
983.41	477.32
983.701	439.02
983.991	357.31
984.281	390.51
984.571	393.06
984.861	382.85
985.151	390.51
985.441	370.08
985.73	385.4
986.02	352.21
986.31	387.95
986.6	395.61
986.889	380.29
987.179	387.95
987.469	393.06
987.758	462
988.048	357.31
988.337	324.12
988.626	421.15
988.916	418.59
989.205	410.93
989.494	359.87
989.783	336.89
990.073	349.65
990.362	344.55
990.651	364.97
990.94	395.61
991.229	416.04
991.518	421.15
991.806	423.7
992.095	449.23
992.384	372.63
992.673	285.82
992.961	349.65
993.25	393.06
993.539	370.08
993.827	357.31
994.116	421.15
994.404	349.65
994.692	367.53
994.981	319.01
995.269	319.01
995.557	405.83
995.846	421.15
996.134	400.72
996.422	400.72
996.71	344.55
996.998	382.85
997.286	344.55
997.574	329.23
997.862	405.83
998.15	326.67
998.437	382.85
998.725	311.35
999.013	385.4
999.3	418.59
999.588	380.29
999.876	377.74
1000.163	377.74
1000.45	362.42
1000.738	339.44
1001.025	329.23
1001.313	359.87
1001.6	319.01
1001.887	352.21
1002.174	339.44
1002.461	359.87
1002.748	344.55
1003.036	375.19
1003.322	403.27
1003.609	395.61
1003.896	405.83
1004.183	336.89
1004.47	403.27
1004.757	393.06
1005.043	418.59
1005.33	341.99
1005.617	405.83
1005.903	331.78
1006.19	352.21
1006.476	370.08
1006.763	403.27
1007.049	367.53
1007.335	418.59
1007.622	341.99
1007.908	390.51
1008.194	331.78
1008.48	441.57
1008.766	410.93
1009.053	377.74
1009.339	364.97
1009.625	372.63
1009.91	400.72
1010.196	421.15
1010.482	395.61
1010.768	408.38
1011.054	408.38
1011.339	349.65
1011.625	451.79
1011.911	357.31
1012.196	395.61
1012.482	329.23
1012.767	303.69
1013.052	390.51
1013.338	334.33
1013.623	398.17
1013.908	390.51
1014.194	347.1
1014.479	416.04
1014.764	382.85
1015.049	319.01
1015.334	395.61
1015.619	395.61
1015.904	362.42
1016.189	306.25
1016.474	344.55
1016.758	367.53
1017.043	347.1
1017.328	336.89
1017.613	375.19
1017.897	408.38
1018.182	410.93
1018.466	436.47
1018.751	359.87
1019.035	393.06
1019.32	416.04
1019.604	344.55
1019.888	393.06
1020.172	393.06
1020.457	393.06
