Data from 2025-12-03_xpw_interference_micrometer_637_FLMS141361__49__699.txt Node

Date: Wed Dec 03 15:56:10 MST 2025
User: james
Spectrometer: FLMS14136
Trigger mode: 0
Integration Time (sec): 1.000000E-1
Scans to average: 1
Electric dark correction enabled: true
Nonlinearity correction enabled: false
Boxcar width: 0
XAxis mode: Wavelengths
Number of Pixels in Spectrum: 2048
>>>>>Begin Spectral Data<<<<<
339.315	32.87
339.697	32.87
340.079	32.87
340.461	-110.11
340.843	-33.51
341.225	7.34
341.607	-105.01
341.989	-71.81
342.371	-59.05
342.752	-122.88
343.134	-30.96
343.516	-20.75
343.897	-51.39
344.279	-28.41
344.661	-0.32
345.042	-15.64
345.423	20.11
345.805	117.14
346.186	89.05
346.567	142.67
346.949	129.9
347.33	106.92
347.711	252.47
348.092	234.59
348.473	239.7
348.854	203.95
349.235	257.57
349.616	295.87
349.997	239.7
350.378	334.17
350.758	300.98
351.139	323.96
351.52	357.15
351.9	349.49
352.281	357.15
352.661	400.56
353.042	438.86
353.422	423.54
353.803	390.35
354.183	433.76
354.563	400.56
354.943	459.29
355.324	380.13
355.704	420.99
356.084	415.88
356.464	415.88
356.844	398.01
357.224	405.67
357.603	390.35
357.983	352.05
358.363	403.11
358.743	392.9
359.122	372.47
359.502	390.35
359.882	385.24
360.261	477.16
360.641	354.6
361.02	390.35
361.399	298.43
361.779	311.19
362.158	357.15
362.537	300.98
362.916	436.31
363.296	308.64
363.675	364.81
364.054	377.58
364.433	415.88
364.812	341.83
365.19	380.13
365.569	265.23
365.948	341.83
366.327	443.97
366.705	390.35
367.084	334.17
367.463	377.58
367.841	334.17
368.22	359.71
368.598	400.56
368.977	341.83
369.355	372.47
369.733	352.05
370.111	369.92
370.49	359.71
370.868	375.03
371.246	369.92
371.624	380.13
372.002	318.85
372.38	405.67
372.758	352.05
373.136	339.28
373.513	288.21
373.891	436.31
374.269	285.66
374.646	344.39
375.024	288.21
375.402	339.28
375.779	362.26
376.157	372.47
376.534	423.54
376.911	441.42
377.289	288.21
377.666	446.52
378.043	385.24
378.42	477.16
378.797	415.88
379.175	400.56
379.552	408.22
379.929	367.37
380.305	423.54
380.682	331.62
381.059	334.17
381.436	336.73
381.813	311.19
382.189	369.92
382.566	339.28
382.943	392.9
383.319	321.41
383.696	390.35
384.072	380.13
384.448	395.45
384.825	354.6
385.201	415.88
385.577	375.03
385.953	400.56
386.329	382.69
386.706	341.83
387.082	377.58
387.458	362.26
387.834	375.03
388.209	364.81
388.585	323.96
388.961	392.9
389.337	354.6
389.713	403.11
390.088	367.37
390.464	352.05
390.839	359.71
391.215	408.22
391.59	426.09
391.966	357.15
392.341	364.81
392.716	329.07
393.092	413.33
393.467	454.18
393.842	387.79
394.217	382.69
394.592	400.56
394.967	431.2
395.342	380.13
395.717	418.43
396.092	461.84
396.467	446.52
396.841	380.13
397.216	369.92
397.591	408.22
397.965	380.13
398.34	423.54
398.714	420.99
399.089	446.52
399.463	398.01
399.838	410.77
400.212	359.71
400.586	375.03
400.961	362.26
401.335	372.47
401.709	339.28
402.083	369.92
402.457	428.65
402.831	415.88
403.205	349.49
403.579	334.17
403.953	390.35
404.326	418.43
404.7	382.69
405.074	410.77
405.447	398.01
405.821	456.74
406.195	367.37
406.568	354.6
406.942	441.42
407.315	403.11
407.688	382.69
408.062	346.94
408.435	382.69
408.808	395.45
409.181	436.31
409.554	466.95
409.927	403.11
410.3	466.95
410.673	341.83
411.046	443.97
411.419	357.15
411.792	385.24
412.165	403.11
412.537	390.35
412.91	420.99
413.283	326.51
413.655	367.37
414.028	339.28
414.4	349.49
414.773	385.24
415.145	433.76
415.517	331.62
415.889	359.71
416.262	461.84
416.634	418.43
417.006	400.56
417.378	415.88
417.75	420.99
418.122	451.63
418.494	367.37
418.866	502.7
419.238	428.65
419.609	364.81
419.981	420.99
420.353	449.08
420.725	420.99
421.096	413.33
421.468	413.33
421.839	390.35
422.211	377.58
422.582	451.63
422.953	405.67
423.325	405.67
423.696	354.6
424.067	382.69
424.438	354.6
424.809	454.18
425.18	357.15
425.551	372.47
425.922	400.56
426.293	387.79
426.664	436.31
427.035	408.22
427.406	502.7
427.776	477.16
428.147	438.86
428.518	418.43
428.888	454.18
429.259	426.09
429.629	311.19
429.999	387.79
430.37	474.61
430.74	436.31
431.11	413.33
431.481	385.24
431.851	433.76
432.221	472.06
432.591	418.43
432.961	349.49
433.331	464.4
433.701	410.77
434.071	385.24
434.441	408.22
434.81	431.2
435.18	380.13
435.55	308.64
435.919	418.43
436.289	408.22
436.658	420.99
437.028	431.2
437.397	477.16
437.767	423.54
438.136	433.76
438.505	441.42
438.875	410.77
439.244	362.26
439.613	359.71
439.982	400.56
440.351	405.67
440.72	436.31
441.089	487.38
441.458	415.88
441.827	329.07
442.196	433.76
442.564	495.04
442.933	367.37
443.302	433.76
443.67	410.77
444.039	472.06
444.407	400.56
444.776	438.86
445.144	359.71
445.513	354.6
445.881	456.74
446.249	436.31
446.617	413.33
446.986	385.24
447.354	438.86
447.722	418.43
448.09	428.65
448.458	369.92
448.826	464.4
449.194	433.76
449.561	428.65
449.929	413.33
450.297	390.35
450.665	390.35
451.032	492.48
451.4	367.37
451.767	415.88
452.135	451.63
452.502	405.67
452.87	410.77
453.237	459.29
453.604	423.54
453.971	436.31
454.339	423.54
454.706	451.63
455.073	387.79
455.44	354.6
455.807	403.11
456.174	426.09
456.541	359.71
456.908	443.97
457.274	464.4
457.641	410.77
458.008	398.01
458.374	364.81
458.741	431.2
459.108	426.09
459.474	420.99
459.841	433.76
460.207	398.01
460.573	375.03
460.94	392.9
461.306	431.2
461.672	451.63
462.038	382.69
462.404	403.11
462.771	446.52
463.137	395.45
463.503	349.49
463.868	395.45
464.234	446.52
464.6	352.05
464.966	428.65
465.332	410.77
465.697	377.58
466.063	413.33
466.429	390.35
466.794	377.58
467.16	395.45
467.525	433.76
467.89	385.24
468.256	375.03
468.621	403.11
468.986	438.86
469.351	410.77
469.717	464.4
470.082	469.5
470.447	415.88
470.812	433.76
471.177	431.2
471.542	395.45
471.906	428.65
472.271	387.79
472.636	385.24
473.001	364.81
473.365	423.54
473.73	403.11
474.094	464.4
474.459	449.08
474.823	408.22
475.188	461.84
475.552	395.45
475.917	354.6
476.281	408.22
476.645	459.29
477.009	415.88
477.373	413.33
477.737	428.65
478.101	479.72
478.465	495.04
478.829	408.22
479.193	410.77
479.557	428.65
479.921	372.47
480.284	349.49
480.648	428.65
481.012	426.09
481.375	474.61
481.739	420.99
482.102	461.84
482.466	474.61
482.829	484.82
483.193	436.31
483.556	375.03
483.919	415.88
484.282	420.99
484.645	446.52
485.009	469.5
485.372	454.18
485.735	489.93
486.098	446.52
486.46	428.65
486.823	367.37
487.186	410.77
487.549	433.76
487.912	372.47
488.274	438.86
488.637	428.65
488.999	329.07
489.362	487.38
489.724	420.99
490.087	352.05
490.449	398.01
490.811	415.88
491.174	362.26
491.536	431.2
491.898	441.42
492.26	403.11
492.622	377.58
492.984	405.67
493.346	364.81
493.708	426.09
494.07	497.59
494.432	352.05
494.794	428.65
495.155	372.47
495.517	392.9
495.879	413.33
496.24	441.42
496.602	433.76
496.963	405.67
497.325	426.09
497.686	461.84
498.048	436.31
498.409	375.03
498.77	454.18
499.131	408.22
499.492	451.63
499.854	403.11
500.215	377.58
500.576	441.42
500.937	464.4
501.298	400.56
501.658	456.74
502.019	408.22
502.38	349.49
502.741	405.67
503.101	420.99
503.462	438.86
503.823	443.97
504.183	446.52
504.543	418.43
504.904	441.42
505.264	443.97
505.625	487.38
505.985	428.65
506.345	418.43
506.705	405.67
507.065	385.24
507.426	423.54
507.786	398.01
508.146	377.58
508.505	418.43
508.865	326.51
509.225	400.56
509.585	433.76
509.945	382.69
510.304	387.79
510.664	428.65
511.024	359.71
511.383	359.71
511.743	369.92
512.102	403.11
512.462	367.37
512.821	385.24
513.18	420.99
513.539	415.88
513.899	461.84
514.258	454.18
514.617	377.58
514.976	395.45
515.335	413.33
515.694	487.38
516.053	436.31
516.412	362.26
516.771	479.72
517.129	482.27
517.488	413.33
517.847	484.82
518.205	472.06
518.564	372.47
518.922	436.31
519.281	400.56
519.639	431.2
519.998	466.95
520.356	390.35
520.714	392.9
521.073	415.88
521.431	426.09
521.789	443.97
522.147	415.88
522.505	405.67
522.863	464.4
523.221	418.43
523.579	466.95
523.937	398.01
524.295	408.22
524.652	405.67
525.01	454.18
525.368	438.86
525.725	413.33
526.083	418.43
526.44	408.22
526.798	400.56
527.155	438.86
527.513	395.45
527.87	449.08
528.227	428.65
528.584	456.74
528.942	449.08
529.299	392.9
529.656	357.15
530.013	408.22
530.37	449.08
530.727	469.5
531.083	477.16
531.44	418.43
531.797	403.11
532.154	408.22
532.511	336.73
532.867	495.04
533.224	367.37
533.58	431.2
533.937	403.11
534.293	449.08
534.65	446.52
535.006	449.08
535.362	395.45
535.718	451.63
536.075	428.65
536.431	449.08
536.787	510.36
537.143	433.76
537.499	446.52
537.855	408.22
538.211	454.18
538.567	408.22
538.923	436.31
539.278	438.86
539.634	464.4
539.99	426.09
540.345	459.29
540.701	387.79
541.056	377.58
541.412	400.56
541.767	449.08
542.123	418.43
542.478	474.61
542.833	423.54
543.188	477.16
543.544	484.82
543.899	459.29
544.254	436.31
544.609	390.35
544.964	372.47
545.319	446.52
545.674	367.37
546.029	428.65
546.383	395.45
546.738	415.88
547.093	403.11
547.447	484.82
547.802	449.08
548.157	408.22
548.511	443.97
548.866	426.09
549.22	369.92
549.574	418.43
549.929	438.86
550.283	446.52
550.637	443.97
550.991	375.03
551.345	428.65
551.699	454.18
552.053	428.65
552.407	395.45
552.761	372.47
553.115	449.08
553.469	482.27
553.823	443.97
554.176	418.43
554.53	456.74
554.884	403.11
555.237	645.69
555.591	426.09
555.944	423.54
556.298	449.08
556.651	497.59
557.005	441.42
557.358	423.54
557.711	456.74
558.064	484.82
558.417	321.41
558.771	477.16
559.124	456.74
559.477	500.14
559.83	385.24
560.182	426.09
560.535	428.65
560.888	438.86
561.241	433.76
561.594	418.43
561.946	408.22
562.299	372.47
562.651	398.01
563.004	420.99
563.356	459.29
563.709	398.01
564.061	451.63
564.413	438.86
564.766	477.16
565.118	433.76
565.47	428.65
565.822	436.31
566.174	428.65
566.526	428.65
566.878	420.99
567.23	474.61
567.582	428.65
567.934	469.5
568.286	418.43
568.638	426.09
568.989	420.99
569.341	438.86
569.693	418.43
570.044	438.86
570.396	438.86
570.747	472.06
571.098	403.11
571.45	438.86
571.801	367.37
572.152	500.14
572.504	426.09
572.855	395.45
573.206	398.01
573.557	408.22
573.908	413.33
574.259	428.65
574.61	423.54
574.961	464.4
575.311	489.93
575.662	410.77
576.013	392.9
576.364	456.74
576.714	420.99
577.065	408.22
577.415	446.52
577.766	441.42
578.116	449.08
578.467	451.63
578.817	464.4
579.167	428.65
579.518	451.63
579.868	413.33
580.218	446.52
580.568	456.74
580.918	449.08
581.268	436.31
581.618	472.06
581.968	387.79
582.318	362.26
582.668	408.22
583.017	428.65
583.367	466.95
583.717	428.65
584.066	395.45
584.416	469.5
584.765	464.4
585.115	449.08
585.464	489.93
585.814	428.65
586.163	362.26
586.512	446.52
586.862	346.94
587.211	449.08
587.56	469.5
587.909	466.95
588.258	413.33
588.607	464.4
588.956	408.22
589.305	403.11
589.654	408.22
590.002	420.99
590.351	451.63
590.7	408.22
591.048	461.84
591.397	428.65
591.746	436.31
592.094	364.81
592.443	403.11
592.791	415.88
593.139	449.08
593.488	443.97
593.836	423.54
594.184	497.59
594.532	438.86
594.88	433.76
595.228	456.74
595.576	405.67
595.924	443.97
596.272	495.04
596.62	426.09
596.968	408.22
597.316	413.33
597.664	380.13
598.011	446.52
598.359	398.01
598.706	469.5
599.054	380.13
599.402	466.95
599.749	433.76
600.096	362.26
600.444	377.58
600.791	436.31
601.138	377.58
601.485	400.56
601.833	405.67
602.18	392.9
602.527	367.37
602.874	377.58
603.221	364.81
603.568	469.5
603.914	431.2
604.261	428.65
604.608	392.9
604.955	357.15
605.301	454.18
605.648	436.31
605.995	454.18
606.341	400.56
606.688	392.9
607.034	375.03
607.38	423.54
607.727	334.17
608.073	395.45
608.419	420.99
608.765	382.69
609.112	461.84
609.458	489.93
609.804	443.97
610.15	410.77
610.496	456.74
610.842	420.99
611.187	377.58
611.533	390.35
611.879	405.67
612.225	403.11
612.57	472.06
612.916	474.61
613.261	502.7
613.607	454.18
613.952	446.52
614.298	369.92
614.643	461.84
614.989	364.81
615.334	482.27
615.679	398.01
616.024	436.31
616.369	390.35
616.714	403.11
617.059	410.77
617.404	459.29
617.749	459.29
618.094	364.81
618.439	426.09
618.784	420.99
619.129	433.76
619.473	372.47
619.818	454.18
620.163	459.29
620.507	451.63
620.852	456.74
621.196	436.31
621.54	482.27
621.885	449.08
622.229	375.03
622.573	398.01
622.918	449.08
623.262	431.2
623.606	459.29
623.95	398.01
624.294	382.69
624.638	443.97
624.982	441.42
625.326	403.11
625.67	382.69
626.013	436.31
626.357	420.99
626.701	420.99
627.044	359.71
627.388	405.67
627.731	433.76
628.075	395.45
628.418	400.56
628.762	446.52
629.105	438.86
629.448	415.88
629.792	408.22
630.135	400.56
630.478	428.65
630.821	413.33
631.164	326.51
631.507	377.58
631.85	385.24
632.193	495.04
632.536	451.63
632.879	438.86
633.221	449.08
633.564	423.54
633.907	405.67
634.249	487.38
634.592	484.82
634.935	433.76
635.277	395.45
635.619	443.97
635.962	403.11
636.304	451.63
636.646	415.88
636.989	403.11
637.331	395.45
637.673	380.13
638.015	375.03
638.357	382.69
638.699	441.42
639.041	418.43
639.383	410.77
639.725	392.9
640.067	420.99
640.408	446.52
640.75	423.54
641.092	385.24
641.433	436.31
641.775	375.03
642.116	387.79
642.458	451.63
642.799	449.08
643.141	377.58
643.482	367.37
643.823	382.69
644.164	420.99
644.506	541
644.847	443.97
645.188	392.9
645.529	390.35
645.87	400.56
646.211	428.65
646.552	415.88
646.893	456.74
647.233	477.16
647.574	441.42
647.915	382.69
648.255	377.58
648.596	392.9
648.937	377.58
649.277	451.63
649.618	466.95
649.958	382.69
650.298	477.16
650.639	398.01
650.979	380.13
651.319	443.97
651.659	441.42
651.999	449.08
652.339	398.01
652.679	395.45
653.019	390.35
653.359	323.96
653.699	454.18
654.039	454.18
654.379	382.69
654.719	385.24
655.058	352.05
655.398	390.35
655.737	446.52
656.077	477.16
656.416	443.97
656.756	441.42
657.095	400.56
657.435	372.47
657.774	403.11
658.113	466.95
658.452	344.39
658.792	461.84
659.131	502.7
659.47	451.63
659.809	433.76
660.148	403.11
660.487	390.35
660.826	354.6
661.164	420.99
661.503	385.24
661.842	369.92
662.181	451.63
662.519	428.65
662.858	415.88
663.196	398.01
663.535	431.2
663.873	456.74
664.212	403.11
664.55	454.18
664.888	469.5
665.226	446.52
665.565	464.4
665.903	604.83
666.241	436.31
666.579	382.69
666.917	331.62
667.255	456.74
667.593	385.24
667.931	346.94
668.268	380.13
668.606	436.31
668.944	403.11
669.282	443.97
669.619	479.72
669.957	415.88
670.294	443.97
670.632	390.35
670.969	349.49
671.307	346.94
671.644	392.9
671.981	426.09
672.318	354.6
672.656	390.35
672.993	346.94
673.33	451.63
673.667	418.43
674.004	479.72
674.341	405.67
674.678	387.79
675.015	410.77
675.351	403.11
675.688	433.76
676.025	428.65
676.362	372.47
676.698	385.24
677.035	395.45
677.371	369.92
677.708	398.01
678.044	369.92
678.38	372.47
678.717	382.69
679.053	354.6
679.389	505.25
679.725	395.45
680.062	436.31
680.398	375.03
680.734	454.18
681.07	420.99
681.406	489.93
681.742	413.33
682.077	449.08
682.413	400.56
682.749	369.92
683.085	443.97
683.42	472.06
683.756	428.65
684.091	441.42
684.427	436.31
684.762	426.09
685.098	405.67
685.433	362.26
685.768	436.31
686.104	433.76
686.439	403.11
686.774	398.01
687.109	431.2
687.444	438.86
687.779	441.42
688.114	410.77
688.449	392.9
688.784	405.67
689.119	377.58
689.454	400.56
689.789	410.77
690.123	415.88
690.458	433.76
690.792	408.22
691.127	400.56
691.461	487.38
691.796	413.33
692.13	405.67
692.465	423.54
692.799	410.77
693.133	387.79
693.467	390.35
693.802	459.29
694.136	446.52
694.47	385.24
694.804	362.26
695.138	369.92
695.472	377.58
695.806	433.76
696.139	392.9
696.473	523.12
696.807	456.74
697.141	443.97
697.474	436.31
697.808	446.52
698.141	410.77
698.475	331.62
698.808	400.56
699.142	433.76
699.475	352.05
699.808	441.42
700.142	456.74
700.475	436.31
700.808	405.67
701.141	369.92
701.474	395.45
701.807	454.18
702.14	433.76
702.473	443.97
702.806	385.24
703.139	428.65
703.472	426.09
703.804	451.63
704.137	369.92
704.47	387.79
704.802	413.33
705.135	459.29
705.467	323.96
705.8	349.49
706.132	372.47
706.464	375.03
706.797	326.51
707.129	357.15
707.461	359.71
707.793	400.56
708.125	362.26
708.457	392.9
708.789	377.58
709.121	441.42
709.453	364.81
709.785	420.99
710.117	359.71
710.449	443.97
710.781	329.07
711.112	372.47
711.444	441.42
711.775	446.52
712.107	364.81
712.438	390.35
712.77	456.74
713.101	415.88
713.433	423.54
713.764	428.65
714.095	380.13
714.426	403.11
714.757	413.33
715.089	420.99
715.42	403.11
715.751	456.74
716.082	420.99
716.412	415.88
716.743	369.92
717.074	308.64
717.405	428.65
717.736	410.77
718.066	367.37
718.397	415.88
718.727	415.88
719.058	382.69
719.388	359.71
719.719	408.22
720.049	346.94
720.38	408.22
720.71	405.67
721.04	405.67
721.37	392.9
721.7	336.73
722.031	464.4
722.361	336.73
722.691	428.65
723.021	420.99
723.35	398.01
723.68	369.92
724.01	484.82
724.34	438.86
724.67	426.09
724.999	398.01
725.329	461.84
725.658	446.52
725.988	433.76
726.317	403.11
726.647	433.76
726.976	426.09
727.306	464.4
727.635	472.06
727.964	436.31
728.293	436.31
728.622	433.76
728.952	395.45
729.281	431.2
729.61	443.97
729.939	387.79
730.267	405.67
730.596	489.93
730.925	441.42
731.254	375.03
731.583	387.79
731.911	382.69
732.24	392.9
732.568	472.06
732.897	398.01
733.225	372.47
733.554	415.88
733.882	431.2
734.21	410.77
734.539	377.58
734.867	436.31
735.195	438.86
735.523	492.48
735.851	415.88
736.179	387.79
736.507	352.05
736.835	398.01
737.163	426.09
737.491	413.33
737.819	403.11
738.147	400.56
738.474	387.79
738.802	438.86
739.13	354.6
739.457	420.99
739.785	369.92
740.112	454.18
740.44	438.86
740.767	362.26
741.094	390.35
741.422	466.95
741.749	456.74
742.076	392.9
742.403	369.92
742.73	441.42
743.057	377.58
743.384	326.51
743.711	477.16
744.038	364.81
744.365	405.67
744.692	367.37
745.018	382.69
745.345	413.33
745.672	423.54
745.998	403.11
746.325	423.54
746.651	339.28
746.978	390.35
747.304	400.56
747.631	472.06
747.957	466.95
748.283	385.24
748.61	415.88
748.936	420.99
749.262	405.67
749.588	413.33
749.914	443.97
750.24	443.97
750.566	451.63
750.892	454.18
751.218	395.45
751.543	405.67
751.869	426.09
752.195	390.35
752.521	441.42
752.846	413.33
753.172	438.86
753.497	428.65
753.823	507.8
754.148	446.52
754.473	405.67
754.799	418.43
755.124	392.9
755.449	443.97
755.774	495.04
756.1	423.54
756.425	449.08
756.75	461.84
757.075	395.45
757.4	533.34
757.724	364.81
758.049	398.01
758.374	380.13
758.699	433.76
759.024	390.35
759.348	392.9
759.673	464.4
759.997	431.2
760.322	400.56
760.646	359.71
760.971	410.77
761.295	456.74
761.619	426.09
761.944	497.59
762.268	482.27
762.592	492.48
762.916	443.97
763.24	418.43
763.564	515.46
763.888	466.95
764.212	502.7
764.536	502.7
764.86	597.17
765.184	742.71
765.508	826.98
765.831	778.46
766.155	1125.72
766.478	998.05
766.802	775.91
767.126	714.63
767.449	712.07
767.772	824.42
768.096	1021.03
768.419	1312.12
768.742	1577.67
769.066	1638.95
769.389	1638.95
769.712	1547.03
770.035	1360.63
770.358	1105.29
770.681	926.56
771.004	1074.65
771.327	1278.92
771.65	1682.36
771.972	2136.86
772.295	2578.59
772.618	2821.16
772.941	2764.99
773.263	2323.25
773.586	1947.91
773.908	1462.77
774.231	1381.06
774.553	1388.72
774.875	1733.42
775.198	2297.72
775.52	2851.8
775.842	3127.57
776.164	3191.4
776.487	3002.45
776.809	2491.78
777.131	1907.05
777.453	1396.38
777.775	1319.78
778.096	1552.13
778.418	2216.01
778.74	3155.66
779.062	4422.13
779.384	5430.72
779.705	5438.38
780.027	4907.27
780.348	4085.09
780.67	3170.98
780.991	2466.24
781.313	1968.34
781.634	1947.91
781.955	2670.51
782.277	3556.54
782.598	4567.67
782.919	5673.29
783.24	6255.46
783.561	5915.86
783.882	5793.3
784.203	4649.38
784.524	3296.09
784.845	2422.84
785.166	1998.98
785.487	2703.71
785.807	3638.24
786.128	4554.91
786.449	5471.57
786.769	6837.63
787.09	8001.97
787.41	7483.63
787.731	5862.24
788.051	3829.75
788.372	2519.86
788.692	2085.79
789.012	2277.29
789.332	3119.91
789.653	4325.1
789.973	5698.82
790.293	7595.98
790.613	8538.18
790.933	9219.93
791.253	8290.5
791.573	6326.95
791.893	4534.48
792.212	2895.21
792.532	2369.22
792.852	2461.14
793.171	3020.33
793.491	4105.51
793.811	5726.91
794.13	7062.32
794.45	7618.96
794.769	7256.38
795.088	6408.66
795.408	4994.09
795.727	3597.39
796.046	2501.99
796.365	2177.71
796.684	2622
797.004	3972.74
797.323	5650.31
797.642	7889.62
797.96	10088.08
798.279	11071.13
798.598	10882.18
798.917	9383.35
799.236	6978.06
799.554	4549.8
799.873	2808.4
800.192	1932.59
800.51	1562.35
800.829	2152.18
801.147	3005.01
801.466	4085.09
801.784	5803.51
802.102	6587.4
802.421	6515.9
802.739	6043.53
803.057	5101.33
803.375	3791.45
803.693	2925.85
804.011	1919.82
804.329	1541.92
804.647	1636.4
804.965	2233.89
805.283	2943.73
805.601	4023.8
805.918	5096.22
806.236	5262.19
806.554	5412.84
806.871	5185.59
807.189	4258.72
807.507	3252.68
807.824	2325.81
808.141	1572.56
808.459	1184.45
808.776	1189.55
809.093	1472.98
809.411	1991.32
809.728	2793.08
810.045	3313.97
810.362	3689.31
810.679	3832.3
810.996	3191.4
811.313	2698.6
811.63	2121.54
811.947	1488.3
812.264	1166.57
812.58	1054.23
812.897	1222.75
813.214	1654.27
813.53	2093.45
813.847	2897.76
814.163	3270.56
814.48	3365.03
814.796	3288.43
815.113	3155.66
815.429	2609.23
815.745	1840.67
816.061	1340.2
816.378	959.75
816.694	745.27
817.01	875.49
817.326	972.52
817.642	1304.46
817.958	1674.7
818.274	2001.53
818.59	2404.96
818.905	2187.93
819.221	2032.17
819.537	1710.44
819.852	1368.29
820.168	1084.87
820.484	839.74
820.799	653.35
821.115	747.82
821.43	811.66
821.745	967.41
822.061	1207.43
822.376	1562.35
822.691	1605.76
823.006	1748.74
823.322	1669.59
823.637	1544.47
823.952	1363.18
824.267	1227.86
824.582	946.98
824.897	712.07
825.211	645.69
825.526	553.76
825.841	543.55
826.156	643.13
826.47	816.76
826.785	901.02
827.1	1044.01
827.414	1120.61
827.729	1143.59
828.043	1092.53
828.357	1008.27
828.672	722.29
828.986	592.06
829.3	597.17
829.614	556.32
829.929	520.57
830.243	689.09
830.557	704.41
830.871	803.99
831.185	967.41
831.499	1036.35
831.812	1054.23
832.126	990.39
832.44	924
832.754	811.66
833.067	655.9
833.381	594.62
833.695	561.42
834.008	523.12
834.322	497.59
834.635	410.77
834.948	492.48
835.262	489.93
835.575	569.08
835.888	694.2
836.201	666.11
836.515	727.39
836.828	765.69
837.141	765.69
837.454	586.96
837.767	548.66
838.08	502.7
838.392	454.18
838.705	403.11
839.018	456.74
839.331	438.86
839.643	528.23
839.956	502.7
840.269	497.59
840.581	546.1
840.894	551.21
841.206	515.46
841.519	615.04
841.831	541
842.143	477.16
842.455	454.18
842.768	543.55
843.08	390.35
843.392	454.18
843.704	571.64
844.016	431.2
844.328	415.88
844.64	518.02
844.952	502.7
845.263	510.36
845.575	451.63
845.887	505.25
846.199	546.1
846.51	512.91
846.822	454.18
847.133	436.31
847.445	420.99
847.756	369.92
848.068	298.43
848.379	405.67
848.69	459.29
849.002	400.56
849.313	415.88
849.624	339.28
849.935	454.18
850.246	398.01
850.557	420.99
850.868	408.22
851.179	380.13
851.49	436.31
851.801	377.58
852.112	405.67
852.422	382.69
852.733	436.31
853.044	341.83
853.354	438.86
853.665	377.58
853.975	420.99
854.286	367.37
854.596	436.31
854.906	413.33
855.217	392.9
855.527	420.99
855.837	398.01
856.147	418.43
856.458	380.13
856.768	375.03
857.078	395.45
857.388	428.65
857.698	443.97
858.007	339.28
858.317	454.18
858.627	418.43
858.937	474.61
859.246	390.35
859.556	405.67
859.866	329.07
860.175	443.97
860.485	385.24
860.794	466.95
861.104	398.01
861.413	395.45
861.722	395.45
862.032	403.11
862.341	413.33
862.65	372.47
862.959	382.69
863.268	377.58
863.577	426.09
863.886	415.88
864.195	380.13
864.504	400.56
864.813	413.33
865.122	382.69
865.43	403.11
865.739	405.67
866.048	385.24
866.356	436.31
866.665	375.03
866.973	415.88
867.282	408.22
867.59	362.26
867.899	403.11
868.207	469.5
868.515	408.22
868.823	372.47
869.132	390.35
869.44	380.13
869.748	398.01
870.056	484.82
870.364	390.35
870.672	472.06
870.98	410.77
871.288	413.33
871.595	410.77
871.903	446.52
872.211	385.24
872.518	420.99
872.826	400.56
873.134	369.92
873.441	408.22
873.749	449.08
874.056	344.39
874.363	420.99
874.671	380.13
874.978	377.58
875.285	443.97
875.592	428.65
875.9	359.71
876.207	339.28
876.514	382.69
876.821	364.81
877.128	438.86
877.435	472.06
877.741	395.45
878.048	395.45
878.355	459.29
878.662	362.26
878.968	410.77
879.275	398.01
879.582	392.9
879.888	382.69
880.195	410.77
880.501	410.77
880.807	392.9
881.114	410.77
881.42	461.84
881.726	456.74
882.032	466.95
882.339	390.35
882.645	390.35
882.951	395.45
883.257	382.69
883.563	392.9
883.869	461.84
884.174	375.03
884.48	377.58
884.786	436.31
885.092	400.56
885.397	400.56
885.703	341.83
886.009	438.86
886.314	418.43
886.62	446.52
886.925	451.63
887.231	436.31
887.536	418.43
887.841	387.79
888.146	418.43
888.452	410.77
888.757	372.47
889.062	428.65
889.367	352.05
889.672	408.22
889.977	415.88
890.282	405.67
890.587	423.54
890.892	420.99
891.196	423.54
891.501	382.69
891.806	423.54
892.11	380.13
892.415	359.71
892.72	410.77
893.024	512.91
893.328	441.42
893.633	461.84
893.937	334.17
894.242	334.17
894.546	420.99
894.85	364.81
895.154	400.56
895.458	423.54
895.762	377.58
896.066	436.31
896.37	352.05
896.674	354.6
896.978	380.13
897.282	392.9
897.586	403.11
897.89	431.2
898.193	387.79
898.497	385.24
898.801	426.09
899.104	446.52
899.408	354.6
899.711	377.58
900.014	428.65
900.318	398.01
900.621	484.82
900.924	443.97
901.228	418.43
901.531	398.01
901.834	413.33
902.137	426.09
902.44	354.6
902.743	433.76
903.046	357.15
903.349	436.31
903.652	433.76
903.955	428.65
904.257	410.77
904.56	387.79
904.863	352.05
905.165	400.56
905.468	423.54
905.77	415.88
906.073	398.01
906.375	426.09
906.678	466.95
906.98	487.38
907.282	403.11
907.584	454.18
907.887	408.22
908.189	423.54
908.491	449.08
908.793	334.17
909.095	354.6
909.397	398.01
909.699	395.45
910.001	408.22
910.302	387.79
910.604	387.79
910.906	362.26
911.208	443.97
911.509	352.05
911.811	428.65
912.112	392.9
912.414	472.06
912.715	431.2
913.017	390.35
913.318	336.73
913.619	446.52
913.92	380.13
914.222	400.56
914.523	364.81
914.824	398.01
915.125	413.33
915.426	466.95
915.727	339.28
916.028	418.43
916.329	357.15
916.63	446.52
916.93	408.22
917.231	446.52
917.532	464.4
917.832	464.4
918.133	382.69
918.434	362.26
918.734	418.43
919.034	426.09
919.335	431.2
919.635	436.31
919.935	390.35
920.236	382.69
920.536	408.22
920.836	451.63
921.136	387.79
921.436	482.27
921.736	426.09
922.036	377.58
922.336	400.56
922.636	423.54
922.936	385.24
923.236	403.11
923.535	357.15
923.835	415.88
924.135	349.49
924.434	372.47
924.734	420.99
925.033	438.86
925.333	423.54
925.632	451.63
925.932	446.52
926.231	375.03
926.53	403.11
926.83	364.81
927.129	405.67
927.428	367.37
927.727	392.9
928.026	349.49
928.325	433.76
928.624	367.37
928.923	336.73
929.222	400.56
929.52	405.67
929.819	415.88
930.118	382.69
930.417	336.73
930.715	405.67
931.014	454.18
931.312	474.61
931.611	329.07
931.909	418.43
932.207	459.29
932.506	395.45
932.804	380.13
933.102	415.88
933.401	346.94
933.699	449.08
933.997	423.54
934.295	380.13
934.593	403.11
934.891	433.76
935.189	433.76
935.487	461.84
935.784	426.09
936.082	446.52
936.38	497.59
936.677	456.74
936.975	436.31
937.273	408.22
937.57	398.01
937.868	382.69
938.165	423.54
938.463	433.76
938.76	362.26
939.057	341.83
939.354	339.28
939.652	364.81
939.949	405.67
940.246	441.42
940.543	461.84
940.84	420.99
941.137	392.9
941.434	367.37
941.731	415.88
942.028	395.45
942.324	420.99
942.621	369.92
942.918	392.9
943.214	387.79
943.511	418.43
943.807	344.39
944.104	446.52
944.4	431.2
944.697	382.69
944.993	423.54
945.29	377.58
945.586	326.51
945.882	354.6
946.178	441.42
946.474	441.42
946.77	418.43
947.066	484.82
947.362	382.69
947.658	415.88
947.954	380.13
948.25	464.4
948.546	420.99
948.842	390.35
949.137	362.26
949.433	390.35
949.729	410.77
950.024	451.63
950.32	359.71
950.615	364.81
950.91	400.56
951.206	369.92
951.501	431.2
951.796	420.99
952.092	362.26
952.387	369.92
952.682	359.71
952.977	431.2
953.272	405.67
953.567	415.88
953.862	426.09
954.157	405.67
954.452	405.67
954.747	357.15
955.041	382.69
955.336	377.58
955.631	500.14
955.925	459.29
956.22	408.22
956.514	395.45
956.809	367.37
957.103	382.69
957.398	377.58
957.692	377.58
957.986	403.11
958.281	418.43
958.575	364.81
958.869	459.29
959.163	398.01
959.457	385.24
959.751	362.26
960.045	464.4
960.339	423.54
960.633	449.08
960.927	418.43
961.221	426.09
961.514	369.92
961.808	354.6
962.102	438.86
962.395	443.97
962.689	469.5
962.982	415.88
963.276	459.29
963.569	352.05
963.862	364.81
964.156	469.5
964.449	438.86
964.742	408.22
965.035	375.03
965.328	392.9
965.622	387.79
965.915	336.73
966.208	392.9
966.5	474.61
966.793	390.35
967.086	433.76
967.379	403.11
967.672	380.13
967.964	390.35
968.257	405.67
968.55	426.09
968.842	395.45
969.135	426.09
969.427	375.03
969.72	413.33
970.012	392.9
970.304	479.72
970.597	377.58
970.889	372.47
971.181	405.67
971.473	487.38
971.765	392.9
972.057	387.79
972.349	395.45
972.641	367.37
972.933	352.05
973.225	400.56
973.517	418.43
973.809	316.3
974.1	336.73
974.392	334.17
974.684	380.13
974.975	403.11
975.267	382.69
975.558	357.15
975.85	377.58
976.141	410.77
976.432	410.77
976.724	405.67
977.015	433.76
977.306	367.37
977.597	405.67
977.888	405.67
978.179	357.15
978.47	426.09
978.761	357.15
979.052	341.83
979.343	362.26
979.634	362.26
979.925	377.58
980.215	392.9
980.506	410.77
980.797	395.45
981.087	400.56
981.378	382.69
981.668	461.84
981.959	359.71
982.249	403.11
982.54	436.31
982.83	410.77
983.12	426.09
983.41	436.31
983.701	420.99
983.991	438.86
984.281	441.42
984.571	438.86
984.861	438.86
985.151	385.24
985.441	392.9
985.73	410.77
986.02	372.47
986.31	382.69
986.6	408.22
986.889	436.31
987.179	405.67
987.469	456.74
987.758	395.45
988.048	372.47
988.337	346.94
988.626	387.79
988.916	413.33
989.205	367.37
989.494	390.35
989.783	418.43
990.073	387.79
990.362	385.24
990.651	382.69
990.94	390.35
991.229	398.01
991.518	413.33
991.806	413.33
992.095	472.06
992.384	380.13
992.673	387.79
992.961	441.42
993.25	400.56
993.539	390.35
993.827	354.6
994.116	459.29
994.404	380.13
994.692	354.6
994.981	415.88
995.269	377.58
995.557	387.79
995.846	359.71
996.134	362.26
996.422	377.58
996.71	392.9
996.998	443.97
997.286	390.35
997.574	385.24
997.862	387.79
998.15	446.52
998.437	359.71
998.725	436.31
999.013	454.18
999.3	377.58
999.588	377.58
999.876	410.77
1000.163	392.9
1000.45	400.56
1000.738	346.94
1001.025	408.22
1001.313	364.81
1001.6	461.84
1001.887	487.38
1002.174	382.69
1002.461	392.9
1002.748	428.65
1003.036	405.67
1003.322	387.79
1003.609	390.35
1003.896	400.56
1004.183	413.33
1004.47	392.9
1004.757	433.76
1005.043	415.88
1005.33	410.77
1005.617	369.92
1005.903	385.24
1006.19	436.31
1006.476	372.47
1006.763	380.13
1007.049	410.77
1007.335	403.11
1007.622	454.18
1007.908	380.13
1008.194	344.39
1008.48	400.56
1008.766	334.17
1009.053	395.45
1009.339	420.99
1009.625	392.9
1009.91	339.28
1010.196	352.05
1010.482	443.97
1010.768	405.67
1011.054	354.6
1011.339	390.35
1011.625	385.24
1011.911	466.95
1012.196	367.37
1012.482	382.69
1012.767	405.67
1013.052	382.69
1013.338	443.97
1013.623	418.43
1013.908	364.81
1014.194	387.79
1014.479	451.63
1014.764	313.75
1015.049	443.97
1015.334	489.93
1015.619	408.22
1015.904	400.56
1016.189	382.69
1016.474	436.31
1016.758	357.15
1017.043	474.61
1017.328	431.2
1017.613	426.09
1017.897	346.94
1018.182	387.79
1018.466	390.35
1018.751	410.77
1019.035	408.22
1019.32	495.04
1019.604	387.79
1019.888	395.45
1020.172	395.45
1020.457	395.45
