Data from 2025-12-03_xpw_interference_micrometer_637_FLMS141361__76__726.txt Node

Date: Wed Dec 03 15:56:13 MST 2025
User: james
Spectrometer: FLMS14136
Trigger mode: 0
Integration Time (sec): 1.000000E-1
Scans to average: 1
Electric dark correction enabled: true
Nonlinearity correction enabled: false
Boxcar width: 0
XAxis mode: Wavelengths
Number of Pixels in Spectrum: 2048
>>>>>Begin Spectral Data<<<<<
339.315	-81.23
339.697	-81.23
340.079	-81.23
340.461	-58.25
340.843	-88.89
341.225	-104.21
341.607	-122.08
341.989	-99.1
342.371	-114.42
342.752	-53.14
343.134	-55.7
343.516	-53.14
343.897	-2.07
344.279	-45.48
344.661	61.76
345.042	5.59
345.423	107.72
345.805	112.83
346.186	128.15
346.567	43.89
346.949	189.43
347.33	133.25
347.711	197.09
348.092	220.07
348.473	217.52
348.854	245.6
349.235	222.62
349.616	314.54
349.997	337.52
350.378	268.58
350.758	329.86
351.139	301.78
351.52	352.84
351.9	329.86
352.281	258.37
352.661	411.57
353.042	352.84
353.422	337.52
353.803	483.07
354.183	350.29
354.563	452.43
354.943	403.91
355.324	375.83
355.704	386.04
356.084	401.36
356.464	421.79
356.844	368.17
357.224	378.38
357.603	398.81
357.983	355.4
358.363	401.36
358.743	396.25
359.122	447.32
359.502	426.89
359.882	414.13
360.261	380.93
360.641	393.7
361.02	393.7
361.399	301.78
361.779	378.38
362.158	309.44
362.537	352.84
362.916	409.02
363.296	393.7
363.675	365.61
364.054	355.4
364.433	383.49
364.812	334.97
365.19	424.34
365.569	337.52
365.948	368.17
366.327	403.91
366.705	327.31
367.084	342.63
367.463	340.08
367.841	253.26
368.22	337.52
368.598	294.12
368.977	368.17
369.355	309.44
369.733	352.84
370.111	365.61
370.49	332.42
370.868	340.08
371.246	370.72
371.624	373.27
372.002	368.17
372.38	373.27
372.758	340.08
373.136	340.08
373.513	327.31
373.891	334.97
374.269	363.06
374.646	360.51
375.024	360.51
375.402	355.4
375.779	342.63
376.157	301.78
376.534	355.4
376.911	324.76
377.289	393.7
377.666	357.95
378.043	296.67
378.42	332.42
378.797	322.2
379.175	332.42
379.552	345.18
379.929	360.51
380.305	398.81
380.682	342.63
381.059	373.27
381.436	378.38
381.813	365.61
382.189	345.18
382.566	332.42
382.943	378.38
383.319	355.4
383.696	378.38
384.072	403.91
384.448	342.63
384.825	391.15
385.201	357.95
385.577	309.44
385.953	393.7
386.329	342.63
386.706	309.44
387.082	386.04
387.458	365.61
387.834	398.81
388.209	393.7
388.585	386.04
388.961	337.52
389.337	342.63
389.713	340.08
390.088	378.38
390.464	357.95
390.839	416.68
391.215	373.27
391.59	391.15
391.966	426.89
392.341	426.89
392.716	357.95
393.092	317.1
393.467	365.61
393.842	403.91
394.217	322.2
394.592	334.97
394.967	370.72
395.342	398.81
395.717	388.59
396.092	409.02
396.467	449.87
396.841	411.57
397.216	319.65
397.591	380.93
397.965	304.33
398.34	319.65
398.714	375.83
399.089	426.89
399.463	416.68
399.838	337.52
400.212	350.29
400.586	347.74
400.961	378.38
401.335	342.63
401.709	391.15
402.083	345.18
402.457	345.18
402.831	360.51
403.205	342.63
403.579	355.4
403.953	311.99
404.326	388.59
404.7	360.51
405.074	368.17
405.447	317.1
405.821	378.38
406.195	375.83
406.568	370.72
406.942	416.68
407.315	370.72
407.688	375.83
408.062	414.13
408.435	406.47
408.808	424.34
409.181	340.08
409.554	332.42
409.927	337.52
410.3	383.49
410.673	317.1
411.046	411.57
411.419	419.23
411.792	432
412.165	322.2
412.537	334.97
412.91	416.68
413.283	355.4
413.655	380.93
414.028	327.31
414.4	332.42
414.773	439.66
415.145	373.27
415.517	355.4
415.889	396.25
416.262	439.66
416.634	386.04
417.006	388.59
417.378	373.27
417.75	470.3
418.122	426.89
418.494	403.91
418.866	334.97
419.238	388.59
419.609	386.04
419.981	378.38
420.353	434.55
420.725	383.49
421.096	406.47
421.468	398.81
421.839	355.4
422.211	393.7
422.582	398.81
422.953	327.31
423.325	365.61
423.696	378.38
424.067	393.7
424.438	345.18
424.809	411.57
425.18	414.13
425.551	426.89
425.922	454.98
426.293	444.77
426.664	442.21
427.035	414.13
427.406	393.7
427.776	368.17
428.147	373.27
428.518	406.47
428.888	388.59
429.259	373.27
429.629	396.25
429.999	347.74
430.37	357.95
430.74	360.51
431.11	363.06
431.481	368.17
431.851	493.28
432.221	426.89
432.591	421.79
432.961	388.59
433.331	309.44
433.701	340.08
434.071	444.77
434.441	411.57
434.81	467.75
435.18	442.21
435.55	391.15
435.919	398.81
436.289	360.51
436.658	388.59
437.028	391.15
437.397	432
437.767	370.72
438.136	391.15
438.505	365.61
438.875	345.18
439.244	416.68
439.613	432
439.982	391.15
440.351	490.73
440.72	449.87
441.089	419.23
441.458	406.47
441.827	329.86
442.196	375.83
442.564	350.29
442.933	375.83
443.302	393.7
443.67	421.79
444.039	342.63
444.407	380.93
444.776	368.17
445.144	347.74
445.513	483.07
445.881	398.81
446.249	370.72
446.617	437.11
446.986	457.53
447.354	386.04
447.722	345.18
448.09	396.25
448.458	403.91
448.826	460.09
449.194	500.94
449.561	414.13
449.929	368.17
450.297	363.06
450.665	426.89
451.032	447.32
451.4	460.09
451.767	452.43
452.135	419.23
452.502	373.27
452.87	337.52
453.237	396.25
453.604	391.15
453.971	319.65
454.339	347.74
454.706	396.25
455.073	403.91
455.44	396.25
455.807	350.29
456.174	350.29
456.541	409.02
456.908	373.27
457.274	383.49
457.641	340.08
458.008	411.57
458.374	437.11
458.741	388.59
459.108	373.27
459.474	416.68
459.841	416.68
460.207	393.7
460.573	375.83
460.94	429.45
461.306	414.13
461.672	393.7
462.038	419.23
462.404	373.27
462.771	396.25
463.137	352.84
463.503	434.55
463.868	447.32
464.234	444.77
464.6	444.77
464.966	434.55
465.332	403.91
465.697	388.59
466.063	403.91
466.429	429.45
466.794	368.17
467.16	424.34
467.525	411.57
467.89	444.77
468.256	370.72
468.621	452.43
468.986	454.98
469.351	401.36
469.717	398.81
470.082	370.72
470.447	452.43
470.812	327.31
471.177	365.61
471.542	411.57
471.906	391.15
472.271	370.72
472.636	380.93
473.001	388.59
473.365	442.21
473.73	416.68
474.094	442.21
474.459	386.04
474.823	380.93
475.188	421.79
475.552	480.51
475.917	386.04
476.281	424.34
476.645	432
477.009	401.36
477.373	452.43
477.737	398.81
478.101	454.98
478.465	432
478.829	370.72
479.193	386.04
479.557	452.43
479.921	449.87
480.284	437.11
480.648	503.49
481.012	419.23
481.375	340.08
481.739	396.25
482.102	378.38
482.466	426.89
482.829	437.11
483.193	350.29
483.556	363.06
483.919	416.68
484.282	403.91
484.645	398.81
485.009	457.53
485.372	383.49
485.735	378.38
486.098	403.91
486.46	391.15
486.823	398.81
487.186	388.59
487.549	401.36
487.912	378.38
488.274	391.15
488.637	452.43
488.999	442.21
489.362	416.68
489.724	386.04
490.087	340.08
490.449	437.11
490.811	401.36
491.174	439.66
491.536	317.1
491.898	360.51
492.26	373.27
492.622	447.32
492.984	411.57
493.346	401.36
493.708	411.57
494.07	409.02
494.432	444.77
494.794	370.72
495.155	375.83
495.517	380.93
495.879	380.93
496.24	398.81
496.602	452.43
496.963	368.17
497.325	345.18
497.686	426.89
498.048	432
498.409	380.93
498.77	406.47
499.131	429.45
499.492	414.13
499.854	421.79
500.215	386.04
500.576	434.55
500.937	442.21
501.298	373.27
501.658	437.11
502.019	409.02
502.38	352.84
502.741	432
503.101	383.49
503.462	383.49
503.823	350.29
504.183	403.91
504.543	432
504.904	368.17
505.264	373.27
505.625	386.04
505.985	439.66
506.345	416.68
506.705	340.08
507.065	378.38
507.426	403.91
507.786	406.47
508.146	434.55
508.505	370.72
508.865	432
509.225	409.02
509.585	511.15
509.945	357.95
510.304	411.57
510.664	375.83
511.024	416.68
511.383	411.57
511.743	411.57
512.102	391.15
512.462	424.34
512.821	419.23
513.18	411.57
513.539	365.61
513.899	319.65
514.258	368.17
514.617	426.89
514.976	452.43
515.335	398.81
515.694	375.83
516.053	396.25
516.412	393.7
516.771	365.61
517.129	375.83
517.488	347.74
517.847	419.23
518.205	429.45
518.564	383.49
518.922	352.84
519.281	442.21
519.639	437.11
519.998	355.4
520.356	383.49
520.714	460.09
521.073	340.08
521.431	357.95
521.789	357.95
522.147	449.87
522.505	442.21
522.863	380.93
523.221	432
523.579	472.85
523.937	437.11
524.295	416.68
524.652	391.15
525.01	401.36
525.368	396.25
525.725	444.77
526.083	403.91
526.44	406.47
526.798	406.47
527.155	398.81
527.513	388.59
527.87	398.81
528.227	414.13
528.584	393.7
528.942	416.68
529.299	416.68
529.656	350.29
530.013	429.45
530.37	449.87
530.727	398.81
531.083	439.66
531.44	411.57
531.797	375.83
532.154	467.75
532.511	401.36
532.867	406.47
533.224	329.86
533.58	424.34
533.937	352.84
534.293	360.51
534.65	286.46
535.006	365.61
535.362	434.55
535.718	383.49
536.075	365.61
536.431	437.11
536.787	363.06
537.143	449.87
537.499	383.49
537.855	465.19
538.211	414.13
538.567	419.23
538.923	360.51
539.278	398.81
539.634	414.13
539.99	403.91
540.345	401.36
540.701	319.65
541.056	447.32
541.412	485.62
541.767	449.87
542.123	380.93
542.478	406.47
542.833	439.66
543.188	434.55
543.544	467.75
543.899	401.36
544.254	368.17
544.609	401.36
544.964	424.34
545.319	409.02
545.674	360.51
546.029	426.89
546.383	406.47
546.738	363.06
547.093	375.83
547.447	355.4
547.802	414.13
548.157	419.23
548.511	373.27
548.866	317.1
549.22	352.84
549.574	378.38
549.929	396.25
550.283	419.23
550.637	452.43
550.991	403.91
551.345	421.79
551.699	409.02
552.053	457.53
552.407	457.53
552.761	383.49
553.115	370.72
553.469	401.36
553.823	419.23
554.176	383.49
554.53	342.63
554.884	370.72
555.237	666.91
555.591	421.79
555.944	363.06
556.298	337.52
556.651	396.25
557.005	345.18
557.358	365.61
557.711	383.49
558.064	396.25
558.417	398.81
558.771	480.51
559.124	378.38
559.477	398.81
559.83	429.45
560.182	437.11
560.535	396.25
560.888	396.25
561.241	416.68
561.594	386.04
561.946	424.34
562.299	414.13
562.651	398.81
563.004	424.34
563.356	414.13
563.709	454.98
564.061	439.66
564.413	386.04
564.766	317.1
565.118	373.27
565.47	480.51
565.822	401.36
566.174	414.13
566.526	426.89
566.878	373.27
567.23	380.93
567.582	432
567.934	363.06
568.286	465.19
568.638	434.55
568.989	401.36
569.341	360.51
569.693	460.09
570.044	409.02
570.396	403.91
570.747	401.36
571.098	340.08
571.45	416.68
571.801	416.68
572.152	378.38
572.504	324.76
572.855	375.83
573.206	434.55
573.557	439.66
573.908	421.79
574.259	414.13
574.61	403.91
574.961	352.84
575.311	386.04
575.662	432
576.013	495.83
576.364	424.34
576.714	373.27
577.065	414.13
577.415	396.25
577.766	337.52
578.116	424.34
578.467	439.66
578.817	388.59
579.167	388.59
579.518	457.53
579.868	480.51
580.218	401.36
580.568	421.79
580.918	416.68
581.268	434.55
581.618	416.68
581.968	370.72
582.318	396.25
582.668	393.7
583.017	398.81
583.367	414.13
583.717	401.36
584.066	378.38
584.416	393.7
584.765	411.57
585.115	378.38
585.464	375.83
585.814	329.86
586.163	383.49
586.512	319.65
586.862	375.83
587.211	403.91
587.56	421.79
587.909	409.02
588.258	416.68
588.607	342.63
588.956	403.91
589.305	406.47
589.654	467.75
590.002	378.38
590.351	429.45
590.7	409.02
591.048	429.45
591.397	393.7
591.746	370.72
592.094	401.36
592.443	462.64
592.791	401.36
593.139	429.45
593.488	432
593.836	375.83
594.184	375.83
594.532	314.54
594.88	452.43
595.228	442.21
595.576	393.7
595.924	388.59
596.272	383.49
596.62	365.61
596.968	391.15
597.316	409.02
597.664	365.61
598.011	414.13
598.359	424.34
598.706	452.43
599.054	406.47
599.402	388.59
599.749	368.17
600.096	373.27
600.444	462.64
600.791	419.23
601.138	401.36
601.485	457.53
601.833	475.41
602.18	386.04
602.527	386.04
602.874	386.04
603.221	419.23
603.568	449.87
603.914	373.27
604.261	347.74
604.608	429.45
604.955	426.89
605.301	411.57
605.648	434.55
605.995	426.89
606.341	386.04
606.688	429.45
607.034	386.04
607.38	357.95
607.727	398.81
608.073	429.45
608.419	370.72
608.765	434.55
609.112	467.75
609.458	416.68
609.804	426.89
610.15	401.36
610.496	347.74
610.842	383.49
611.187	454.98
611.533	368.17
611.879	309.44
612.225	370.72
612.57	347.74
612.916	419.23
613.261	406.47
613.607	432
613.952	406.47
614.298	355.4
614.643	421.79
614.989	393.7
615.334	401.36
615.679	363.06
616.024	388.59
616.369	345.18
616.714	332.42
617.059	406.47
617.404	429.45
617.749	437.11
618.094	332.42
618.439	368.17
618.784	393.7
619.129	432
619.473	383.49
619.818	383.49
620.163	411.57
620.507	449.87
620.852	426.89
621.196	388.59
621.54	383.49
621.885	340.08
622.229	380.93
622.573	398.81
622.918	406.47
623.262	383.49
623.606	437.11
623.95	467.75
624.294	350.29
624.638	363.06
624.982	373.27
625.326	388.59
625.67	429.45
626.013	380.93
626.357	378.38
626.701	424.34
627.044	375.83
627.388	432
627.731	391.15
628.075	375.83
628.418	337.52
628.762	378.38
629.105	426.89
629.448	437.11
629.792	409.02
630.135	488.17
630.478	457.53
630.821	363.06
631.164	322.2
631.507	421.79
631.85	465.19
632.193	347.74
632.536	409.02
632.879	409.02
633.221	447.32
633.564	322.2
633.907	401.36
634.249	477.96
634.592	365.61
634.935	439.66
635.277	393.7
635.619	421.79
635.962	429.45
636.304	419.23
636.646	421.79
636.989	363.06
637.331	442.21
637.673	452.43
638.015	380.93
638.357	406.47
638.699	409.02
639.041	324.76
639.383	340.08
639.725	355.4
640.067	388.59
640.408	467.75
640.75	424.34
641.092	447.32
641.433	409.02
641.775	442.21
642.116	439.66
642.458	398.81
642.799	368.17
643.141	416.68
643.482	442.21
643.823	365.61
644.164	442.21
644.506	467.75
644.847	419.23
645.188	370.72
645.529	393.7
645.87	355.4
646.211	409.02
646.552	386.04
646.893	334.97
647.233	444.77
647.574	414.13
647.915	345.18
648.255	347.74
648.596	332.42
648.937	495.83
649.277	424.34
649.618	342.63
649.958	421.79
650.298	409.02
650.639	322.2
650.979	368.17
651.319	454.98
651.659	386.04
651.999	426.89
652.339	465.19
652.679	442.21
653.019	419.23
653.359	444.77
653.699	419.23
654.039	409.02
654.379	391.15
654.719	386.04
655.058	388.59
655.398	401.36
655.737	477.96
656.077	432
656.416	419.23
656.756	406.47
657.095	432
657.435	414.13
657.774	437.11
658.113	360.51
658.452	337.52
658.792	365.61
659.131	429.45
659.47	373.27
659.809	391.15
660.148	406.47
660.487	373.27
660.826	340.08
661.164	449.87
661.503	391.15
661.842	352.84
662.181	403.91
662.519	401.36
662.858	350.29
663.196	370.72
663.535	296.67
663.873	398.81
664.212	432
664.55	401.36
664.888	365.61
665.226	432
665.565	421.79
665.903	641.38
666.241	401.36
666.579	470.3
666.917	437.11
667.255	396.25
667.593	403.91
667.931	360.51
668.268	421.79
668.606	352.84
668.944	383.49
669.282	342.63
669.619	386.04
669.957	432
670.294	393.7
670.632	332.42
670.969	398.81
671.307	347.74
671.644	401.36
671.981	378.38
672.318	363.06
672.656	432
672.993	360.51
673.33	370.72
673.667	329.86
674.004	337.52
674.341	401.36
674.678	355.4
675.015	426.89
675.351	447.32
675.688	386.04
676.025	380.93
676.362	465.19
676.698	495.83
677.035	409.02
677.371	403.91
677.708	442.21
678.044	419.23
678.38	388.59
678.717	426.89
679.053	403.91
679.389	401.36
679.725	365.61
680.062	411.57
680.398	419.23
680.734	414.13
681.07	360.51
681.406	388.59
681.742	432
682.077	386.04
682.413	434.55
682.749	375.83
683.085	340.08
683.42	355.4
683.756	347.74
684.091	419.23
684.427	337.52
684.762	380.93
685.098	373.27
685.433	370.72
685.768	334.97
686.104	375.83
686.439	355.4
686.774	388.59
687.109	411.57
687.444	424.34
687.779	398.81
688.114	409.02
688.449	319.65
688.784	462.64
689.119	373.27
689.454	365.61
689.789	355.4
690.123	396.25
690.458	365.61
690.792	439.66
691.127	414.13
691.461	388.59
691.796	352.84
692.13	368.17
692.465	324.76
692.799	398.81
693.133	406.47
693.467	337.52
693.802	365.61
694.136	393.7
694.47	467.75
694.804	409.02
695.138	452.43
695.472	368.17
695.806	332.42
696.139	398.81
696.473	365.61
696.807	396.25
697.141	426.89
697.474	388.59
697.808	391.15
698.141	393.7
698.475	347.74
698.808	352.84
699.142	406.47
699.475	355.4
699.808	352.84
700.142	467.75
700.475	403.91
700.808	383.49
701.141	393.7
701.474	378.38
701.807	424.34
702.14	383.49
702.473	352.84
702.806	424.34
703.139	457.53
703.472	398.81
703.804	434.55
704.137	378.38
704.47	444.77
704.802	393.7
705.135	345.18
705.467	368.17
705.8	329.86
706.132	454.98
706.464	409.02
706.797	444.77
707.129	421.79
707.461	462.64
707.793	368.17
708.125	401.36
708.457	347.74
708.789	426.89
709.121	432
709.453	391.15
709.785	386.04
710.117	350.29
710.449	347.74
710.781	334.97
711.112	380.93
711.444	383.49
711.775	406.47
712.107	432
712.438	424.34
712.77	447.32
713.101	363.06
713.433	388.59
713.764	380.93
714.095	383.49
714.426	414.13
714.757	306.88
715.089	386.04
715.42	319.65
715.751	429.45
716.082	383.49
716.412	432
716.743	368.17
717.074	401.36
717.405	370.72
717.736	388.59
718.066	421.79
718.397	432
718.727	416.68
719.058	472.85
719.388	340.08
719.719	370.72
720.049	401.36
720.38	383.49
720.71	406.47
721.04	426.89
721.37	350.29
721.7	375.83
722.031	439.66
722.361	347.74
722.691	352.84
723.021	401.36
723.35	378.38
723.68	370.72
724.01	401.36
724.34	352.84
724.67	350.29
724.999	442.21
725.329	380.93
725.658	432
725.988	414.13
726.317	401.36
726.647	452.43
726.976	426.89
727.306	421.79
727.635	444.77
727.964	406.47
728.293	426.89
728.622	363.06
728.952	391.15
729.281	424.34
729.61	357.95
729.939	378.38
730.267	439.66
730.596	472.85
730.925	373.27
731.254	421.79
731.583	426.89
731.911	411.57
732.24	432
732.568	373.27
732.897	391.15
733.225	414.13
733.554	391.15
733.882	350.29
734.21	419.23
734.539	411.57
734.867	414.13
735.195	401.36
735.523	386.04
735.851	411.57
736.179	375.83
736.507	429.45
736.835	406.47
737.163	368.17
737.491	375.83
737.819	357.95
738.147	355.4
738.474	368.17
738.802	355.4
739.13	363.06
739.457	452.43
739.785	419.23
740.112	432
740.44	434.55
740.767	444.77
741.094	432
741.422	375.83
741.749	391.15
742.076	393.7
742.403	378.38
742.73	375.83
743.057	352.84
743.384	375.83
743.711	363.06
744.038	345.18
744.365	373.27
744.692	363.06
745.018	363.06
745.345	342.63
745.672	393.7
745.998	393.7
746.325	368.17
746.651	337.52
746.978	383.49
747.304	383.49
747.631	393.7
747.957	406.47
748.283	432
748.61	480.51
748.936	444.77
749.262	414.13
749.588	352.84
749.914	416.68
750.24	370.72
750.566	322.2
750.892	398.81
751.218	357.95
751.543	357.95
751.869	380.93
752.195	347.74
752.521	370.72
752.846	370.72
753.172	432
753.497	386.04
753.823	355.4
754.148	401.36
754.473	386.04
754.799	345.18
755.124	368.17
755.449	414.13
755.774	345.18
756.1	398.81
756.425	383.49
756.75	406.47
757.075	409.02
757.4	536.69
757.724	360.51
758.049	363.06
758.374	378.38
758.699	365.61
759.024	409.02
759.348	421.79
759.673	449.87
759.997	432
760.322	419.23
760.646	447.32
760.971	396.25
761.295	442.21
761.619	391.15
761.944	452.43
762.268	470.3
762.592	500.94
762.916	462.64
763.24	483.07
763.564	452.43
763.888	493.28
764.212	472.85
764.536	554.56
764.86	610.74
765.184	743.51
765.508	784.37
765.831	825.22
766.155	1131.63
766.478	899.27
766.802	853.31
767.126	715.42
767.449	643.93
767.772	822.67
768.096	1049.92
768.419	1277.17
768.742	1550.38
769.066	1662.73
769.389	1593.79
769.712	1491.65
770.035	1361.43
770.358	1103.54
770.681	970.76
771.004	1055.02
771.327	1310.36
771.65	1790.4
771.972	2081.48
772.295	2581.94
772.618	2837.28
772.941	2801.53
773.263	2331.71
773.586	1854.23
773.908	1532.51
774.231	1282.27
774.553	1320.58
774.875	1688.26
775.198	2395.55
775.52	2934.31
775.842	3105.39
776.164	2995.59
776.487	2730.04
776.809	2518.11
777.131	1948.71
777.453	1432.92
777.775	1218.44
778.096	1504.42
778.418	2227.02
778.74	3105.39
779.062	4175.25
779.384	5319.17
779.705	5574.5
780.027	4982.12
780.348	4011.84
780.67	3064.53
780.991	2359.8
781.313	1884.87
781.634	1925.73
781.955	2451.72
782.277	3455.2
782.598	4456.12
782.919	5658.76
783.24	6215.4
783.561	6039.22
783.882	5748.13
784.203	4573.58
784.524	3250.93
784.845	2364.91
785.166	1969.13
785.487	2564.07
785.807	3687.56
786.128	4399.95
786.449	5428.96
786.769	6685.22
787.09	7806.16
787.41	7223.99
787.731	5735.37
788.051	3784.58
788.372	2543.64
788.692	2061.05
789.012	2178.51
789.332	3039
789.653	4325.9
789.973	5906.44
790.293	7563.58
790.613	8337.26
790.933	9075.18
791.253	7946.59
791.573	6151.57
791.893	4463.78
792.212	2873.03
792.532	2257.66
792.852	2347.03
793.171	3016.02
793.491	4042.48
793.811	5564.29
794.13	6994.18
794.45	7543.16
794.769	7346.55
795.088	6480.95
795.408	4964.25
795.727	3493.5
796.046	2364.91
796.365	2122.34
796.684	2553.86
797.004	3863.74
797.323	5753.24
797.642	7941.48
797.96	10188.46
798.279	11151.08
798.598	10563.8
798.917	9363.72
799.236	6884.39
799.554	4678.27
799.873	2865.37
800.192	1821.04
800.51	1670.39
800.829	2055.95
801.147	3123.26
801.466	4157.38
801.784	5768.56
802.102	6383.92
802.421	6371.16
802.739	5893.68
803.057	4844.24
803.375	4019.5
803.693	2709.61
804.011	1915.51
804.329	1478.88
804.647	1581.02
804.965	2170.85
805.283	2990.48
805.601	4142.06
805.918	5117.45
806.236	5418.75
806.554	5689.4
806.871	5229.8
807.189	4249.3
807.507	3276.46
807.824	2354.69
808.141	1570.81
808.459	1203.12
808.776	1243.97
809.093	1486.54
809.411	1895.09
809.728	2671.31
810.045	3401.58
810.362	3769.26
810.679	3799.91
810.996	3253.48
811.313	2696.85
811.63	2040.63
811.947	1494.2
812.264	1095.88
812.58	1093.32
812.897	1172.48
813.214	1604
813.53	2132.55
813.847	2832.17
814.163	3317.32
814.48	3284.12
814.796	3225.4
815.113	3212.63
815.429	2576.84
815.745	1900.19
816.061	1256.74
816.378	960.55
816.694	858.41
817.01	845.65
817.326	1049.92
817.642	1325.68
817.958	1611.66
818.274	2045.73
818.59	2344.48
818.905	2038.07
819.221	1971.69
819.537	1690.82
819.852	1407.39
820.168	1021.83
820.484	812.45
820.799	692.44
821.115	689.89
821.43	776.71
821.745	927.35
822.061	1266.95
822.376	1486.54
822.691	1721.46
823.006	1703.58
823.322	1655.07
823.637	1555.49
823.952	1506.97
824.267	1323.13
824.582	1006.51
824.897	758.83
825.211	620.95
825.526	603.08
825.841	592.86
826.156	664.36
826.47	758.83
826.785	919.69
827.1	942.68
827.414	952.89
827.729	1085.66
828.043	998.85
828.357	998.85
828.672	799.69
828.986	620.95
829.3	580.1
829.614	541.79
829.929	536.69
830.243	620.95
830.557	649.04
830.871	797.13
831.185	845.65
831.499	1047.36
831.812	1037.15
832.126	1052.47
832.44	896.71
832.754	807.35
833.067	751.17
833.381	562.22
833.695	574.99
834.008	541.79
834.322	462.64
834.635	562.22
834.948	518.81
835.262	529.03
835.575	636.27
835.888	656.7
836.201	728.19
836.515	715.42
836.828	705.21
837.141	697.55
837.454	682.23
837.767	569.88
838.08	483.07
838.392	432
838.705	457.53
839.018	403.91
839.331	419.23
839.643	457.53
839.956	498.39
840.269	536.69
840.581	521.37
840.894	498.39
841.206	541.79
841.519	674.57
841.831	536.69
842.143	477.96
842.455	511.15
842.768	406.47
843.08	396.25
843.392	429.45
843.704	449.87
844.016	503.49
844.328	454.98
844.64	506.05
844.952	493.28
845.263	508.6
845.575	493.28
845.887	557.12
846.199	490.73
846.51	483.07
846.822	439.66
847.133	488.17
847.445	444.77
847.756	360.51
848.068	416.68
848.379	442.21
848.69	449.87
849.002	403.91
849.313	421.79
849.624	409.02
849.935	432
850.246	391.15
850.557	393.7
850.868	406.47
851.179	314.54
851.49	416.68
851.801	370.72
852.112	480.51
852.422	363.06
852.733	393.7
853.044	363.06
853.354	421.79
853.665	437.11
853.975	352.84
854.286	414.13
854.596	409.02
854.906	421.79
855.217	373.27
855.527	439.66
855.837	327.31
856.147	350.29
856.458	432
856.768	434.55
857.078	401.36
857.388	437.11
857.698	406.47
858.007	447.32
858.317	409.02
858.627	345.18
858.937	342.63
859.246	419.23
859.556	393.7
859.866	365.61
860.175	424.34
860.485	449.87
860.794	421.79
861.104	383.49
861.413	383.49
861.722	424.34
862.032	350.29
862.341	401.36
862.65	378.38
862.959	342.63
863.268	347.74
863.577	426.89
863.886	421.79
864.195	365.61
864.504	398.81
864.813	334.97
865.122	363.06
865.43	380.93
865.739	449.87
866.048	370.72
866.356	388.59
866.665	409.02
866.973	355.4
867.282	386.04
867.59	396.25
867.899	370.72
868.207	396.25
868.515	383.49
868.823	444.77
869.132	352.84
869.44	426.89
869.748	454.98
870.056	419.23
870.364	393.7
870.672	373.27
870.98	444.77
871.288	414.13
871.595	406.47
871.903	398.81
872.211	388.59
872.518	363.06
872.826	393.7
873.134	429.45
873.441	462.64
873.749	386.04
874.056	434.55
874.363	352.84
874.671	334.97
874.978	360.51
875.285	357.95
875.592	434.55
875.9	368.17
876.207	439.66
876.514	370.72
876.821	386.04
877.128	409.02
877.435	370.72
877.741	345.18
878.048	329.86
878.355	419.23
878.662	386.04
878.968	437.11
879.275	409.02
879.582	437.11
879.888	411.57
880.195	393.7
880.501	419.23
880.807	375.83
881.114	383.49
881.42	411.57
881.726	352.84
882.032	375.83
882.339	347.74
882.645	398.81
882.951	380.93
883.257	424.34
883.563	414.13
883.869	380.93
884.174	370.72
884.48	421.79
884.786	327.31
885.092	429.45
885.397	370.72
885.703	426.89
886.009	391.15
886.314	370.72
886.62	375.83
886.925	314.54
887.231	424.34
887.536	396.25
887.841	380.93
888.146	409.02
888.452	378.38
888.757	368.17
889.062	409.02
889.367	396.25
889.672	355.4
889.977	396.25
890.282	386.04
890.587	380.93
890.892	342.63
891.196	342.63
891.501	439.66
891.806	317.1
892.11	319.65
892.415	414.13
892.72	470.3
893.024	432
893.328	493.28
893.633	416.68
893.937	424.34
894.242	391.15
894.546	426.89
894.85	334.97
895.154	393.7
895.458	378.38
895.762	370.72
896.066	414.13
896.37	373.27
896.674	424.34
896.978	360.51
897.282	386.04
897.586	378.38
897.89	357.95
898.193	409.02
898.497	426.89
898.801	454.98
899.104	426.89
899.408	391.15
899.711	421.79
900.014	301.78
900.318	363.06
900.621	414.13
900.924	432
901.228	411.57
901.531	460.09
901.834	403.91
902.137	383.49
902.44	355.4
902.743	350.29
903.046	467.75
903.349	434.55
903.652	403.91
903.955	368.17
904.257	324.76
904.56	388.59
904.863	383.49
905.165	311.99
905.468	396.25
905.77	352.84
906.073	426.89
906.375	373.27
906.678	357.95
906.98	352.84
907.282	352.84
907.584	383.49
907.887	363.06
908.189	355.4
908.491	342.63
908.793	383.49
909.095	414.13
909.397	322.2
909.699	327.31
910.001	398.81
910.302	373.27
910.604	424.34
910.906	460.09
911.208	375.83
911.509	375.83
911.811	378.38
912.112	393.7
912.414	391.15
912.715	449.87
913.017	398.81
913.318	375.83
913.619	347.74
913.92	401.36
914.222	437.11
914.523	370.72
914.824	337.52
915.125	370.72
915.426	411.57
915.727	357.95
916.028	411.57
916.329	355.4
916.63	386.04
916.93	360.51
917.231	416.68
917.532	421.79
917.832	398.81
918.133	439.66
918.434	401.36
918.734	357.95
919.034	355.4
919.335	370.72
919.635	334.97
919.935	375.83
920.236	401.36
920.536	470.3
920.836	380.93
921.136	409.02
921.436	541.79
921.736	396.25
922.036	340.08
922.336	401.36
922.636	432
922.936	406.47
923.236	444.77
923.535	411.57
923.835	299.22
924.135	416.68
924.434	490.73
924.734	342.63
925.033	350.29
925.333	360.51
925.632	393.7
925.932	380.93
926.231	363.06
926.53	380.93
926.83	401.36
927.129	403.91
927.428	314.54
927.727	439.66
928.026	432
928.325	324.76
928.624	409.02
928.923	429.45
929.222	416.68
929.52	375.83
929.819	414.13
930.118	401.36
930.417	375.83
930.715	378.38
931.014	388.59
931.312	393.7
931.611	416.68
931.909	388.59
932.207	401.36
932.506	391.15
932.804	332.42
933.102	322.2
933.401	319.65
933.699	380.93
933.997	334.97
934.295	337.52
934.593	444.77
934.891	370.72
935.189	401.36
935.487	357.95
935.784	350.29
936.082	363.06
936.38	426.89
936.677	396.25
936.975	432
937.273	396.25
937.57	368.17
937.868	398.81
938.165	424.34
938.463	442.21
938.76	363.06
939.057	457.53
939.354	355.4
939.652	424.34
939.949	442.21
940.246	424.34
940.543	429.45
940.84	429.45
941.137	403.91
941.434	365.61
941.731	357.95
942.028	396.25
942.324	350.29
942.621	301.78
942.918	332.42
943.214	345.18
943.511	352.84
943.807	350.29
944.104	373.27
944.4	419.23
944.697	327.31
944.993	419.23
945.29	406.47
945.586	388.59
945.882	426.89
946.178	401.36
946.474	396.25
946.77	388.59
947.066	386.04
947.362	409.02
947.658	360.51
947.954	373.27
948.25	268.58
948.546	347.74
948.842	365.61
949.137	314.54
949.433	439.66
949.729	375.83
950.024	391.15
950.32	291.56
950.615	398.81
950.91	406.47
951.206	357.95
951.501	406.47
951.796	352.84
952.092	452.43
952.387	393.7
952.682	314.54
952.977	363.06
953.272	393.7
953.567	467.75
953.862	373.27
954.157	368.17
954.452	388.59
954.747	357.95
955.041	327.31
955.336	398.81
955.631	396.25
955.925	380.93
956.22	350.29
956.514	283.9
956.809	375.83
957.103	414.13
957.398	416.68
957.692	365.61
957.986	424.34
958.281	409.02
958.575	357.95
958.869	388.59
959.163	357.95
959.457	332.42
959.751	350.29
960.045	340.08
960.339	452.43
960.633	375.83
960.927	434.55
961.221	426.89
961.514	401.36
961.808	370.72
962.102	332.42
962.395	357.95
962.689	378.38
962.982	380.93
963.276	365.61
963.569	363.06
963.862	360.51
964.156	421.79
964.449	432
964.742	403.91
965.035	363.06
965.328	355.4
965.622	421.79
965.915	334.97
966.208	276.24
966.5	419.23
966.793	383.49
967.086	396.25
967.379	373.27
967.672	375.83
967.964	365.61
968.257	393.7
968.55	357.95
968.842	388.59
969.135	357.95
969.427	414.13
969.72	373.27
970.012	386.04
970.304	452.43
970.597	355.4
970.889	424.34
971.181	363.06
971.473	393.7
971.765	396.25
972.057	393.7
972.349	419.23
972.641	332.42
972.933	409.02
973.225	378.38
973.517	383.49
973.809	375.83
974.1	388.59
974.392	391.15
974.684	391.15
974.975	342.63
975.267	363.06
975.558	314.54
975.85	375.83
976.141	426.89
976.432	342.63
976.724	383.49
977.015	368.17
977.306	347.74
977.597	373.27
977.888	368.17
978.179	388.59
978.47	442.21
978.761	334.97
979.052	368.17
979.343	324.76
979.634	350.29
979.925	309.44
980.215	311.99
980.506	380.93
980.797	403.91
981.087	345.18
981.378	375.83
981.668	383.49
981.959	345.18
982.249	429.45
982.54	388.59
982.83	347.74
983.12	388.59
983.41	383.49
983.701	375.83
983.991	319.65
984.281	401.36
984.571	370.72
984.861	342.63
985.151	363.06
985.441	350.29
985.73	365.61
986.02	375.83
986.31	347.74
986.6	368.17
986.889	401.36
987.179	363.06
987.469	327.31
987.758	365.61
988.048	340.08
988.337	350.29
988.626	291.56
988.916	314.54
989.205	291.56
989.494	360.51
989.783	304.33
990.073	332.42
990.362	337.52
990.651	373.27
990.94	457.53
991.229	403.91
991.518	465.19
991.806	401.36
992.095	409.02
992.384	378.38
992.673	327.31
992.961	363.06
993.25	396.25
993.539	447.32
993.827	421.79
994.116	386.04
994.404	373.27
994.692	388.59
994.981	419.23
995.269	355.4
995.557	383.49
995.846	475.41
996.134	380.93
996.422	401.36
996.71	357.95
996.998	357.95
997.286	368.17
997.574	437.11
997.862	401.36
998.15	396.25
998.437	416.68
998.725	355.4
999.013	439.66
999.3	365.61
999.588	373.27
999.876	403.91
1000.163	342.63
1000.45	340.08
1000.738	419.23
1001.025	460.09
1001.313	383.49
1001.6	347.74
1001.887	365.61
1002.174	334.97
1002.461	375.83
1002.748	403.91
1003.036	416.68
1003.322	327.31
1003.609	398.81
1003.896	444.77
1004.183	429.45
1004.47	414.13
1004.757	411.57
1005.043	396.25
1005.33	373.27
1005.617	360.51
1005.903	317.1
1006.19	396.25
1006.476	419.23
1006.763	352.84
1007.049	396.25
1007.335	334.97
1007.622	352.84
1007.908	370.72
1008.194	342.63
1008.48	460.09
1008.766	424.34
1009.053	388.59
1009.339	370.72
1009.625	403.91
1009.91	467.75
1010.196	347.74
1010.482	360.51
1010.768	396.25
1011.054	403.91
1011.339	342.63
1011.625	421.79
1011.911	380.93
1012.196	373.27
1012.482	286.46
1012.767	429.45
1013.052	406.47
1013.338	411.57
1013.623	373.27
1013.908	391.15
1014.194	334.97
1014.479	398.81
1014.764	345.18
1015.049	301.78
1015.334	416.68
1015.619	429.45
1015.904	370.72
1016.189	383.49
1016.474	409.02
1016.758	373.27
1017.043	452.43
1017.328	386.04
1017.613	363.06
1017.897	437.11
1018.182	383.49
1018.466	411.57
1018.751	357.95
1019.035	439.66
1019.32	419.23
1019.604	378.38
1019.888	416.68
1020.172	416.68
1020.457	416.68
