Data from 2025-12-03_xpw_interference_FLMS141361__13__14-34-43-280.txt Node

Date: Wed Dec 03 14:34:43 MST 2025
User: james
Spectrometer: FLMS14136
Trigger mode: 0
Integration Time (sec): 1.000000E-1
Scans to average: 1
Electric dark correction enabled: true
Nonlinearity correction enabled: false
Boxcar width: 0
XAxis mode: Wavelengths
Number of Pixels in Spectrum: 2048
>>>>>Begin Spectral Data<<<<<
339.315	-100.86
339.697	-100.86
340.079	-100.86
340.461	-72.77
340.843	-88.09
341.225	-42.13
341.607	-90.64
341.989	-136.61
342.371	-100.86
342.752	-62.56
343.134	-44.68
343.516	-16.6
343.897	1.28
344.279	-21.7
344.661	-34.47
345.042	37.02
345.423	70.22
345.805	44.68
346.186	118.73
346.567	139.16
346.949	139.16
347.33	180.01
347.711	121.29
348.092	210.65
348.473	231.08
348.854	190.23
349.235	241.29
349.616	256.61
349.997	292.36
350.378	282.15
350.758	282.15
351.139	323
351.52	330.66
351.9	358.75
352.281	333.22
352.661	358.75
353.042	333.22
353.422	305.13
353.803	371.52
354.183	333.22
354.563	351.09
354.943	328.11
355.324	282.15
355.704	381.73
356.084	317.9
356.464	300.02
356.844	340.88
357.224	328.11
357.603	279.59
357.983	325.56
358.363	320.45
358.743	371.52
359.122	397.05
359.502	320.45
359.882	363.86
360.261	305.13
360.641	320.45
361.02	328.11
361.399	345.98
361.779	338.32
362.158	348.54
362.537	361.3
362.916	397.05
363.296	256.61
363.675	330.66
364.054	351.09
364.433	320.45
364.812	292.36
365.19	340.88
365.569	310.24
365.948	340.88
366.327	345.98
366.705	338.32
367.084	289.81
367.463	330.66
367.841	310.24
368.22	302.58
368.598	340.88
368.977	340.88
369.355	325.56
369.733	330.66
370.111	246.4
370.49	371.52
370.868	345.98
371.246	302.58
371.624	310.24
372.002	289.81
372.38	294.92
372.758	277.04
373.136	363.86
373.513	300.02
373.891	289.81
374.269	302.58
374.646	356.2
375.024	317.9
375.402	289.81
375.779	345.98
376.157	338.32
376.534	323
376.911	340.88
377.289	412.37
377.666	358.75
378.043	351.09
378.42	338.32
378.797	366.41
379.175	305.13
379.552	376.62
379.929	361.3
380.305	325.56
380.682	358.75
381.059	358.75
381.436	323
381.813	356.2
382.189	246.4
382.566	340.88
382.943	397.05
383.319	297.47
383.696	374.07
384.072	320.45
384.448	351.09
384.825	343.43
385.201	376.62
385.577	338.32
385.953	335.77
386.329	371.52
386.706	317.9
387.082	312.79
387.458	315.34
387.834	353.64
388.209	397.05
388.585	340.88
388.961	353.64
389.337	409.82
389.713	409.82
390.088	353.64
390.464	391.94
390.839	333.22
391.215	371.52
391.59	371.52
391.966	374.07
392.341	366.41
392.716	338.32
393.092	279.59
393.467	356.2
393.842	420.03
394.217	368.96
394.592	315.34
394.967	310.24
395.342	348.54
395.717	376.62
396.092	397.05
396.467	379.18
396.841	315.34
397.216	300.02
397.591	312.79
397.965	338.32
398.34	340.88
398.714	420.03
399.089	356.2
399.463	312.79
399.838	310.24
400.212	330.66
400.586	376.62
400.961	409.82
401.335	394.5
401.709	351.09
402.083	351.09
402.457	338.32
402.831	330.66
403.205	420.03
403.579	361.3
403.953	371.52
404.326	417.48
404.7	412.37
405.074	361.3
405.447	294.92
405.821	356.2
406.195	363.86
406.568	340.88
406.942	397.05
407.315	394.5
407.688	282.15
408.062	338.32
408.435	345.98
408.808	358.75
409.181	307.68
409.554	374.07
409.927	366.41
410.3	287.26
410.673	376.62
411.046	412.37
411.419	317.9
411.792	368.96
412.165	361.3
412.537	394.5
412.91	351.09
413.283	340.88
413.655	361.3
414.028	356.2
414.4	323
414.773	294.92
415.145	300.02
415.517	320.45
415.889	353.64
416.262	312.79
416.634	399.6
417.006	366.41
417.378	300.02
417.75	348.54
418.122	374.07
418.494	361.3
418.866	358.75
419.238	345.98
419.609	269.38
419.981	353.64
420.353	412.37
420.725	335.77
421.096	348.54
421.468	402.16
421.839	302.58
422.211	335.77
422.582	394.5
422.953	397.05
423.325	315.34
423.696	374.07
424.067	348.54
424.438	374.07
424.809	399.6
425.18	358.75
425.551	343.43
425.922	351.09
426.293	348.54
426.664	402.16
427.035	351.09
427.406	328.11
427.776	371.52
428.147	407.26
428.518	427.69
428.888	397.05
429.259	386.84
429.629	361.3
429.999	409.82
430.37	374.07
430.74	394.5
431.11	389.39
431.481	371.52
431.851	340.88
432.221	343.43
432.591	389.39
432.961	376.62
433.331	289.81
433.701	361.3
434.071	409.82
434.441	340.88
434.81	312.79
435.18	381.73
435.55	391.94
435.919	432.8
436.289	407.26
436.658	333.22
437.028	427.69
437.397	371.52
437.767	325.56
438.136	363.86
438.505	368.96
438.875	394.5
439.244	381.73
439.613	414.92
439.982	343.43
440.351	427.69
440.72	420.03
441.089	417.48
441.458	414.92
441.827	358.75
442.196	343.43
442.564	443.01
442.933	353.64
443.302	409.82
443.67	381.73
444.039	353.64
444.407	397.05
444.776	414.92
445.144	376.62
445.513	366.41
445.881	317.9
446.249	430.24
446.617	358.75
446.986	379.18
447.354	425.14
447.722	417.48
448.09	422.58
448.458	366.41
448.826	386.84
449.194	399.6
449.561	460.88
449.929	412.37
450.297	328.11
450.665	363.86
451.032	376.62
451.4	397.05
451.767	412.37
452.135	402.16
452.502	414.92
452.87	363.86
453.237	358.75
453.604	361.3
453.971	345.98
454.339	384.28
454.706	425.14
455.073	443.01
455.44	386.84
455.807	384.28
456.174	409.82
456.541	399.6
456.908	330.66
457.274	420.03
457.641	394.5
458.008	325.56
458.374	422.58
458.741	376.62
459.108	366.41
459.474	374.07
459.841	363.86
460.207	397.05
460.573	348.54
460.94	384.28
461.306	297.47
461.672	374.07
462.038	389.39
462.404	356.2
462.771	363.86
463.137	386.84
463.503	297.47
463.868	381.73
464.234	358.75
464.6	404.71
464.966	302.58
465.332	402.16
465.697	366.41
466.063	376.62
466.429	379.18
466.794	368.96
467.16	412.37
467.525	404.71
467.89	379.18
468.256	351.09
468.621	366.41
468.986	402.16
469.351	374.07
469.717	366.41
470.082	315.34
470.447	384.28
470.812	412.37
471.177	374.07
471.542	404.71
471.906	353.64
472.271	425.14
472.636	345.98
473.001	404.71
473.365	430.24
473.73	368.96
474.094	409.82
474.459	389.39
474.823	445.56
475.188	356.2
475.552	345.98
475.917	371.52
476.281	391.94
476.645	348.54
477.009	358.75
477.373	404.71
477.737	330.66
478.101	366.41
478.465	402.16
478.829	386.84
479.193	389.39
479.557	422.58
479.921	425.14
480.284	371.52
480.648	348.54
481.012	412.37
481.375	366.41
481.739	445.56
482.102	386.84
482.466	381.73
482.829	397.05
483.193	333.22
483.556	312.79
483.919	343.43
484.282	417.48
484.645	455.78
485.009	399.6
485.372	374.07
485.735	379.18
486.098	343.43
486.46	333.22
486.823	335.77
487.186	455.78
487.549	361.3
487.912	307.68
488.274	368.96
488.637	379.18
488.999	435.35
489.362	407.26
489.724	345.98
490.087	407.26
490.449	427.69
490.811	389.39
491.174	328.11
491.536	445.56
491.898	399.6
492.26	440.46
492.622	371.52
492.984	397.05
493.346	420.03
493.708	417.48
494.07	488.97
494.432	371.52
494.794	414.92
495.155	432.8
495.517	353.64
495.879	445.56
496.24	376.62
496.602	389.39
496.963	427.69
497.325	363.86
497.686	435.35
498.048	368.96
498.409	320.45
498.77	302.58
499.131	343.43
499.492	348.54
499.854	391.94
500.215	381.73
500.576	363.86
500.937	374.07
501.298	412.37
501.658	417.48
502.019	412.37
502.38	338.32
502.741	389.39
503.101	366.41
503.462	374.07
503.823	371.52
504.183	345.98
504.543	366.41
504.904	430.24
505.264	389.39
505.625	407.26
505.985	394.5
506.345	414.92
506.705	432.8
507.065	397.05
507.426	420.03
507.786	374.07
508.146	394.5
508.505	345.98
508.865	455.78
509.225	412.37
509.585	460.88
509.945	404.71
510.304	379.18
510.664	353.64
511.024	345.98
511.383	366.41
511.743	317.9
512.102	412.37
512.462	317.9
512.821	399.6
513.18	363.86
513.539	412.37
513.899	397.05
514.258	407.26
514.617	386.84
514.976	389.39
515.335	397.05
515.694	363.86
516.053	399.6
516.412	343.43
516.771	391.94
517.129	353.64
517.488	353.64
517.847	402.16
518.205	379.18
518.564	386.84
518.922	399.6
519.281	394.5
519.639	376.62
519.998	366.41
520.356	343.43
520.714	402.16
521.073	333.22
521.431	338.32
521.789	363.86
522.147	287.26
522.505	356.2
522.863	333.22
523.221	320.45
523.579	368.96
523.937	371.52
524.295	358.75
524.652	404.71
525.01	386.84
525.368	432.8
525.725	412.37
526.083	407.26
526.44	399.6
526.798	430.24
527.155	437.9
527.513	330.66
527.87	394.5
528.227	443.01
528.584	386.84
528.942	420.03
529.299	376.62
529.656	425.14
530.013	325.56
530.37	374.07
530.727	351.09
531.083	389.39
531.44	425.14
531.797	404.71
532.154	399.6
532.511	345.98
532.867	376.62
533.224	307.68
533.58	374.07
533.937	320.45
534.293	338.32
534.65	348.54
535.006	371.52
535.362	420.03
535.718	437.9
536.075	427.69
536.431	345.98
536.787	407.26
537.143	397.05
537.499	358.75
537.855	404.71
538.211	379.18
538.567	414.92
538.923	394.5
539.278	391.94
539.634	384.28
539.99	381.73
540.345	348.54
540.701	368.96
541.056	320.45
541.412	358.75
541.767	386.84
542.123	361.3
542.478	315.34
542.833	371.52
543.188	391.94
543.544	414.92
543.899	366.41
544.254	384.28
544.609	351.09
544.964	381.73
545.319	374.07
545.674	358.75
546.029	333.22
546.383	417.48
546.738	402.16
547.093	358.75
547.447	391.94
547.802	363.86
548.157	389.39
548.511	315.34
548.866	361.3
549.22	381.73
549.574	343.43
549.929	381.73
550.283	374.07
550.637	386.84
550.991	391.94
551.345	358.75
551.699	407.26
552.053	353.64
552.407	353.64
552.761	427.69
553.115	412.37
553.469	440.46
553.823	425.14
554.176	430.24
554.53	368.96
554.884	366.41
555.237	540.04
555.591	425.14
555.944	340.88
556.298	356.2
556.651	404.71
557.005	409.82
557.358	450.67
557.711	371.52
558.064	455.78
558.417	409.82
558.771	463.44
559.124	437.9
559.477	391.94
559.83	374.07
560.182	376.62
560.535	483.87
560.888	435.35
561.241	325.56
561.594	368.96
561.946	430.24
562.299	361.3
562.651	358.75
563.004	435.35
563.356	366.41
563.709	407.26
564.061	381.73
564.413	269.38
564.766	277.04
565.118	353.64
565.47	425.14
565.822	376.62
566.174	361.3
566.526	381.73
566.878	328.11
567.23	399.6
567.582	384.28
567.934	402.16
568.286	391.94
568.638	361.3
568.989	361.3
569.341	368.96
569.693	345.98
570.044	356.2
570.396	391.94
570.747	366.41
571.098	376.62
571.45	476.2
571.801	353.64
572.152	376.62
572.504	343.43
572.855	363.86
573.206	353.64
573.557	384.28
573.908	414.92
574.259	363.86
574.61	353.64
574.961	317.9
575.311	394.5
575.662	379.18
576.013	348.54
576.364	384.28
576.714	371.52
577.065	399.6
577.415	356.2
577.766	356.2
578.116	389.39
578.467	381.73
578.817	351.09
579.167	312.79
579.518	379.18
579.868	330.66
580.218	402.16
580.568	412.37
580.918	338.32
581.268	412.37
581.618	391.94
581.968	381.73
582.318	402.16
582.668	386.84
583.017	371.52
583.367	356.2
583.717	391.94
584.066	402.16
584.416	317.9
584.765	340.88
585.115	368.96
585.464	407.26
585.814	381.73
586.163	397.05
586.512	417.48
586.862	417.48
587.211	399.6
587.56	381.73
587.909	384.28
588.258	430.24
588.607	389.39
588.956	402.16
589.305	361.3
589.654	389.39
590.002	402.16
590.351	397.05
590.7	351.09
591.048	376.62
591.397	366.41
591.746	381.73
592.094	302.58
592.443	412.37
592.791	440.46
593.139	384.28
593.488	473.65
593.836	414.92
594.184	412.37
594.532	376.62
594.88	394.5
595.228	376.62
595.576	399.6
595.924	361.3
596.272	409.82
596.62	435.35
596.968	389.39
597.316	391.94
597.664	422.58
598.011	366.41
598.359	348.54
598.706	345.98
599.054	402.16
599.402	391.94
599.749	389.39
600.096	407.26
600.444	379.18
600.791	391.94
601.138	351.09
601.485	376.62
601.833	323
602.18	356.2
602.527	330.66
602.874	386.84
603.221	323
603.568	343.43
603.914	333.22
604.261	345.98
604.608	368.96
604.955	409.82
605.301	333.22
605.648	404.71
605.995	420.03
606.341	376.62
606.688	407.26
607.034	368.96
607.38	323
607.727	366.41
608.073	450.67
608.419	368.96
608.765	325.56
609.112	323
609.458	404.71
609.804	397.05
610.15	366.41
610.496	358.75
610.842	409.82
611.187	333.22
611.533	328.11
611.879	307.68
612.225	468.54
612.57	376.62
612.916	399.6
613.261	386.84
613.607	402.16
613.952	420.03
614.298	358.75
614.643	351.09
614.989	389.39
615.334	391.94
615.679	340.88
616.024	448.12
616.369	381.73
616.714	407.26
617.059	458.33
617.404	402.16
617.749	389.39
618.094	407.26
618.439	404.71
618.784	358.75
619.129	422.58
619.473	412.37
619.818	399.6
620.163	435.35
620.507	351.09
620.852	340.88
621.196	437.9
621.54	351.09
621.885	404.71
622.229	432.8
622.573	412.37
622.918	409.82
623.262	371.52
623.606	374.07
623.95	330.66
624.294	397.05
624.638	432.8
624.982	402.16
625.326	374.07
625.67	351.09
626.013	363.86
626.357	330.66
626.701	417.48
627.044	425.14
627.388	391.94
627.731	404.71
628.075	412.37
628.418	389.39
628.762	409.82
629.105	320.45
629.448	374.07
629.792	335.77
630.135	330.66
630.478	366.41
630.821	381.73
631.164	394.5
631.507	379.18
631.85	397.05
632.193	363.86
632.536	361.3
632.879	317.9
633.221	351.09
633.564	435.35
633.907	476.2
634.249	356.2
634.592	310.24
634.935	330.66
635.277	409.82
635.619	353.64
635.962	450.67
636.304	376.62
636.646	391.94
636.989	325.56
637.331	414.92
637.673	391.94
638.015	368.96
638.357	407.26
638.699	404.71
639.041	374.07
639.383	397.05
639.725	391.94
640.067	430.24
640.408	404.71
640.75	394.5
641.092	363.86
641.433	345.98
641.775	315.34
642.116	343.43
642.458	404.71
642.799	414.92
643.141	384.28
643.482	317.9
643.823	414.92
644.164	414.92
644.506	404.71
644.847	409.82
645.188	361.3
645.529	486.42
645.87	409.82
646.211	414.92
646.552	366.41
646.893	310.24
647.233	292.36
647.574	356.2
647.915	379.18
648.255	323
648.596	366.41
648.937	368.96
649.277	379.18
649.618	320.45
649.958	307.68
650.298	328.11
650.639	330.66
650.979	376.62
651.319	330.66
651.659	330.66
651.999	366.41
652.339	417.48
652.679	404.71
653.019	361.3
653.359	320.45
653.699	384.28
654.039	358.75
654.379	379.18
654.719	381.73
655.058	422.58
655.398	368.96
655.737	412.37
656.077	402.16
656.416	361.3
656.756	417.48
657.095	417.48
657.435	330.66
657.774	371.52
658.113	381.73
658.452	374.07
658.792	358.75
659.131	391.94
659.47	330.66
659.809	335.77
660.148	374.07
660.487	345.98
660.826	315.34
661.164	279.59
661.503	317.9
661.842	358.75
662.181	323
662.519	348.54
662.858	330.66
663.196	391.94
663.535	340.88
663.873	358.75
664.212	397.05
664.55	366.41
664.888	361.3
665.226	397.05
665.565	366.41
665.903	486.42
666.241	389.39
666.579	361.3
666.917	353.64
667.255	343.43
667.593	353.64
667.931	437.9
668.268	391.94
668.606	363.86
668.944	374.07
669.282	363.86
669.619	384.28
669.957	361.3
670.294	399.6
670.632	343.43
670.969	409.82
671.307	348.54
671.644	356.2
671.981	305.13
672.318	379.18
672.656	330.66
672.993	422.58
673.33	425.14
673.667	414.92
674.004	376.62
674.341	432.8
674.678	376.62
675.015	353.64
675.351	379.18
675.688	374.07
676.025	443.01
676.362	379.18
676.698	374.07
677.035	361.3
677.371	363.86
677.708	376.62
678.044	351.09
678.38	328.11
678.717	381.73
679.053	368.96
679.389	414.92
679.725	371.52
680.062	417.48
680.398	376.62
680.734	386.84
681.07	404.71
681.406	356.2
681.742	353.64
682.077	389.39
682.413	399.6
682.749	379.18
683.085	389.39
683.42	323
683.756	310.24
684.091	330.66
684.427	361.3
684.762	345.98
685.098	389.39
685.433	361.3
685.768	356.2
686.104	366.41
686.439	420.03
686.774	356.2
687.109	361.3
687.444	394.5
687.779	409.82
688.114	376.62
688.449	368.96
688.784	391.94
689.119	420.03
689.454	448.12
689.789	384.28
690.123	345.98
690.458	402.16
690.792	386.84
691.127	430.24
691.461	389.39
691.796	384.28
692.13	335.77
692.465	389.39
692.799	371.52
693.133	351.09
693.467	384.28
693.802	338.32
694.136	402.16
694.47	417.48
694.804	376.62
695.138	404.71
695.472	386.84
695.806	335.77
696.139	409.82
696.473	323
696.807	333.22
697.141	343.43
697.474	343.43
697.808	294.92
698.141	266.83
698.475	363.86
698.808	389.39
699.142	399.6
699.475	384.28
699.808	340.88
700.142	302.58
700.475	345.98
700.808	448.12
701.141	379.18
701.474	391.94
701.807	328.11
702.14	384.28
702.473	353.64
702.806	320.45
703.139	340.88
703.472	386.84
703.804	328.11
704.137	358.75
704.47	417.48
704.802	391.94
705.135	368.96
705.467	335.77
705.8	381.73
706.132	404.71
706.464	371.52
706.797	340.88
707.129	358.75
707.461	366.41
707.793	348.54
708.125	335.77
708.457	376.62
708.789	335.77
709.121	394.5
709.453	356.2
709.785	465.99
710.117	420.03
710.449	363.86
710.781	379.18
711.112	379.18
711.444	368.96
711.775	391.94
712.107	348.54
712.438	381.73
712.77	371.52
713.101	402.16
713.433	376.62
713.764	397.05
714.095	381.73
714.426	397.05
714.757	366.41
715.089	379.18
715.42	363.86
715.751	320.45
716.082	353.64
716.412	409.82
716.743	443.01
717.074	389.39
717.405	397.05
717.736	328.11
718.066	458.33
718.397	351.09
718.727	437.9
719.058	368.96
719.388	361.3
719.719	348.54
720.049	361.3
720.38	379.18
720.71	386.84
721.04	376.62
721.37	351.09
721.7	381.73
722.031	361.3
722.361	358.75
722.691	348.54
723.021	407.26
723.35	345.98
723.68	345.98
724.01	402.16
724.34	366.41
724.67	363.86
724.999	389.39
725.329	363.86
725.658	335.77
725.988	374.07
726.317	343.43
726.647	351.09
726.976	374.07
727.306	307.68
727.635	297.47
727.964	353.64
728.293	294.92
728.622	440.46
728.952	366.41
729.281	345.98
729.61	379.18
729.939	430.24
730.267	376.62
730.596	363.86
730.925	425.14
731.254	386.84
731.583	412.37
731.911	379.18
732.24	399.6
732.568	379.18
732.897	348.54
733.225	366.41
733.554	330.66
733.882	366.41
734.21	371.52
734.539	376.62
734.867	379.18
735.195	412.37
735.523	343.43
735.851	381.73
736.179	389.39
736.507	340.88
736.835	391.94
737.163	435.35
737.491	320.45
737.819	345.98
738.147	386.84
738.474	351.09
738.802	425.14
739.13	437.9
739.457	425.14
739.785	358.75
740.112	361.3
740.44	353.64
740.767	379.18
741.094	363.86
741.422	376.62
741.749	366.41
742.076	384.28
742.403	361.3
742.73	317.9
743.057	317.9
743.384	379.18
743.711	374.07
744.038	340.88
744.365	386.84
744.692	381.73
745.018	305.13
745.345	409.82
745.672	340.88
745.998	389.39
746.325	340.88
746.651	363.86
746.978	356.2
747.304	458.33
747.631	300.02
747.957	340.88
748.283	384.28
748.61	409.82
748.936	312.79
749.262	361.3
749.588	366.41
749.914	374.07
750.24	356.2
750.566	358.75
750.892	335.77
751.218	328.11
751.543	333.22
751.869	394.5
752.195	427.69
752.521	394.5
752.846	269.38
753.172	404.71
753.497	399.6
753.823	363.86
754.148	343.43
754.473	345.98
754.799	384.28
755.124	294.92
755.449	348.54
755.774	389.39
756.1	374.07
756.425	374.07
756.75	394.5
757.075	371.52
757.4	345.98
757.724	394.5
758.049	317.9
758.374	404.71
758.699	407.26
759.024	368.96
759.348	353.64
759.673	269.38
759.997	343.43
760.322	409.82
760.646	325.56
760.971	302.58
761.295	351.09
761.619	374.07
761.944	381.73
762.268	328.11
762.592	353.64
762.916	356.2
763.24	358.75
763.564	397.05
763.888	294.92
764.212	394.5
764.536	460.88
764.86	381.73
765.184	460.88
765.508	358.75
765.831	358.75
766.155	606.43
766.478	412.37
766.802	386.84
767.126	488.97
767.449	499.19
767.772	437.9
768.096	422.58
768.419	481.31
768.742	471.1
769.066	537.49
769.389	491.53
769.712	575.79
770.035	488.97
770.358	555.36
770.681	563.02
771.004	555.36
771.327	560.47
771.65	629.41
771.972	672.82
772.295	662.6
772.618	688.14
772.941	654.94
773.263	695.8
773.586	675.37
773.908	741.76
774.231	723.88
774.553	774.95
774.875	800.48
775.198	774.95
775.52	782.61
775.842	700.9
776.164	772.4
776.487	780.06
776.809	767.29
777.131	797.93
777.453	838.78
777.775	849
778.096	846.44
778.418	856.66
778.74	928.15
779.062	1020.07
779.384	1004.75
779.705	1170.72
780.027	1058.38
780.348	1058.38
780.67	1002.2
780.991	1101.78
781.313	1129.87
781.634	1283.07
781.955	1211.58
782.277	1249.88
782.598	1196.26
782.919	1160.51
783.24	1226.9
783.561	1272.86
783.882	1397.97
784.203	1510.32
784.524	1482.24
784.845	1637.99
785.166	1558.84
785.487	1579.26
785.807	1599.69
786.128	1607.35
786.449	1551.18
786.769	1472.02
787.09	1655.87
787.41	1671.19
787.731	1735.02
788.051	1829.5
788.372	1689.06
788.692	1561.39
789.012	1625.23
789.332	1538.41
789.653	1663.53
789.973	1627.78
790.293	1625.23
790.613	1551.18
790.933	1604.8
791.253	1681.4
791.573	1704.38
791.893	1847.37
792.212	1829.5
792.532	1908.65
792.852	1824.39
793.171	1763.11
793.491	1666.08
793.811	1602.24
794.13	1553.73
794.45	1492.45
794.769	1650.76
795.088	1637.99
795.408	1620.12
795.727	1495
796.046	1556.28
796.365	1691.61
796.684	1740.13
797.004	1727.36
797.323	1786.09
797.642	1893.33
797.96	1952.06
798.279	1765.66
798.598	1821.84
798.917	1855.03
799.236	1735.02
799.554	1750.34
799.873	1758
800.192	1857.58
800.51	1844.82
800.829	1696.72
801.147	1571.6
801.466	1699.27
801.784	1563.94
802.102	1696.72
802.421	1673.74
802.739	1875.46
803.057	1780.98
803.375	1699.27
803.693	1719.7
804.011	1819.28
804.329	1696.72
804.647	1740.13
804.965	1780.98
805.283	1740.13
805.601	1637.99
805.918	1489.9
806.236	1586.92
806.554	1627.78
806.871	1551.18
807.189	1576.71
807.507	1599.69
807.824	1413.29
808.141	1566.5
808.459	1517.98
808.776	1495
809.093	1507.77
809.411	1540.96
809.728	1438.83
810.045	1359.67
810.362	1316.27
810.679	1334.14
810.996	1298.39
811.313	1267.75
811.63	1198.81
811.947	1165.62
812.264	1155.4
812.58	1096.68
812.897	1183.49
813.214	1106.89
813.53	1076.25
813.847	1117.1
814.163	1117.1
814.48	1048.16
814.796	979.22
815.113	974.11
815.429	1127.32
815.745	1147.74
816.061	1160.51
816.378	1012.41
816.694	1112
817.01	1101.78
817.326	1004.75
817.642	981.77
817.958	994.54
818.274	997.09
818.59	976.67
818.905	871.98
819.221	831.12
819.537	861.77
819.852	915.39
820.168	879.64
820.484	841.34
820.799	836.23
821.115	831.12
821.43	843.89
821.745	795.38
822.061	841.34
822.376	874.53
822.691	805.59
823.006	833.68
823.322	757.08
823.637	774.95
823.952	828.57
824.267	849
824.582	864.32
824.897	846.44
825.211	833.68
825.526	897.51
825.841	790.27
826.156	751.97
826.47	731.54
826.785	660.05
827.1	593.66
827.414	606.43
827.729	593.66
828.043	644.73
828.357	608.98
828.672	626.85
828.986	637.07
829.3	575.79
829.614	586
829.929	527.27
830.243	540.04
830.557	494.08
830.871	540.04
831.185	534.93
831.499	522.17
831.812	578.34
832.126	550.25
832.44	542.59
832.754	560.47
833.067	473.65
833.381	501.74
833.695	465.99
834.008	468.54
834.322	588.55
834.635	621.75
834.948	534.93
835.262	557.91
835.575	481.31
835.888	491.53
836.201	476.2
836.515	504.29
836.828	445.56
837.141	427.69
837.454	381.73
837.767	409.82
838.08	509.4
838.392	450.67
838.705	440.46
839.018	427.69
839.331	453.22
839.643	450.67
839.956	488.97
840.269	412.37
840.581	409.82
840.894	407.26
841.206	458.33
841.519	471.1
841.831	376.62
842.143	300.02
842.455	384.28
842.768	430.24
843.08	453.22
843.392	409.82
843.704	407.26
844.016	328.11
844.328	371.52
844.64	366.41
844.952	340.88
845.263	450.67
845.575	340.88
845.887	391.94
846.199	389.39
846.51	371.52
846.822	371.52
847.133	371.52
847.445	381.73
847.756	402.16
848.068	386.84
848.379	361.3
848.69	371.52
849.002	417.48
849.313	417.48
849.624	343.43
849.935	361.3
850.246	427.69
850.557	374.07
850.868	358.75
851.179	430.24
851.49	391.94
851.801	358.75
852.112	368.96
852.422	356.2
852.733	330.66
853.044	381.73
853.354	351.09
853.665	412.37
853.975	328.11
854.286	320.45
854.596	351.09
854.906	335.77
855.217	391.94
855.527	340.88
855.837	340.88
856.147	407.26
856.458	353.64
856.768	335.77
857.078	391.94
857.388	391.94
857.698	368.96
858.007	394.5
858.317	394.5
858.627	391.94
858.937	351.09
859.246	366.41
859.556	368.96
859.866	379.18
860.175	386.84
860.485	361.3
860.794	348.54
861.104	361.3
861.413	432.8
861.722	343.43
862.032	340.88
862.341	340.88
862.65	356.2
862.959	397.05
863.268	353.64
863.577	356.2
863.886	356.2
864.195	414.92
864.504	312.79
864.813	343.43
865.122	363.86
865.43	368.96
865.739	384.28
866.048	430.24
866.356	368.96
866.665	348.54
866.973	320.45
867.282	328.11
867.59	412.37
867.899	376.62
868.207	351.09
868.515	345.98
868.823	381.73
869.132	422.58
869.44	297.47
869.748	294.92
870.056	363.86
870.364	381.73
870.672	402.16
870.98	453.22
871.288	409.82
871.595	368.96
871.903	340.88
872.211	356.2
872.518	371.52
872.826	376.62
873.134	361.3
873.441	448.12
873.749	358.75
874.056	402.16
874.363	389.39
874.671	345.98
874.978	379.18
875.285	376.62
875.592	325.56
875.9	361.3
876.207	343.43
876.514	345.98
876.821	312.79
877.128	328.11
877.435	366.41
877.741	363.86
878.048	440.46
878.355	399.6
878.662	443.01
878.968	363.86
879.275	317.9
879.582	458.33
879.888	376.62
880.195	366.41
880.501	312.79
880.807	320.45
881.114	312.79
881.42	343.43
881.726	420.03
882.032	374.07
882.339	351.09
882.645	358.75
882.951	348.54
883.257	351.09
883.563	374.07
883.869	397.05
884.174	412.37
884.48	412.37
884.786	340.88
885.092	394.5
885.397	312.79
885.703	448.12
886.009	361.3
886.314	366.41
886.62	317.9
886.925	384.28
887.231	358.75
887.536	356.2
887.841	379.18
888.146	381.73
888.452	389.39
888.757	432.8
889.062	394.5
889.367	381.73
889.672	427.69
889.977	300.02
890.282	356.2
890.587	384.28
890.892	310.24
891.196	384.28
891.501	356.2
891.806	363.86
892.11	312.79
892.415	386.84
892.72	323
893.024	420.03
893.328	384.28
893.633	384.28
893.937	404.71
894.242	323
894.546	366.41
894.85	368.96
895.154	384.28
895.458	307.68
895.762	435.35
896.066	348.54
896.37	335.77
896.674	404.71
896.978	376.62
897.282	358.75
897.586	340.88
897.89	409.82
898.193	430.24
898.497	425.14
898.801	463.44
899.104	412.37
899.408	320.45
899.711	356.2
900.014	317.9
900.318	381.73
900.621	335.77
900.924	391.94
901.228	399.6
901.531	325.56
901.834	391.94
902.137	323
902.44	366.41
902.743	386.84
903.046	353.64
903.349	361.3
903.652	343.43
903.955	384.28
904.257	302.58
904.56	363.86
904.863	361.3
905.165	363.86
905.468	399.6
905.77	379.18
906.073	353.64
906.375	294.92
906.678	409.82
906.98	391.94
907.282	381.73
907.584	389.39
907.887	389.39
908.189	320.45
908.491	340.88
908.793	325.56
909.095	371.52
909.397	345.98
909.699	320.45
910.001	325.56
910.302	338.32
910.604	361.3
910.906	292.36
911.208	310.24
911.509	333.22
911.811	340.88
912.112	356.2
912.414	328.11
912.715	402.16
913.017	312.79
913.318	310.24
913.619	374.07
913.92	325.56
914.222	351.09
914.523	358.75
914.824	391.94
915.125	358.75
915.426	394.5
915.727	310.24
916.028	335.77
916.329	356.2
916.63	397.05
916.93	384.28
917.231	402.16
917.532	379.18
917.832	368.96
918.133	312.79
918.434	374.07
918.734	366.41
919.034	356.2
919.335	289.81
919.635	348.54
919.935	348.54
920.236	404.71
920.536	358.75
920.836	402.16
921.136	305.13
921.436	407.26
921.736	430.24
922.036	305.13
922.336	412.37
922.636	353.64
922.936	389.39
923.236	345.98
923.535	338.32
923.835	437.9
924.135	384.28
924.434	294.92
924.734	394.5
925.033	366.41
925.333	394.5
925.632	338.32
925.932	353.64
926.231	353.64
926.53	374.07
926.83	343.43
927.129	340.88
927.428	338.32
927.727	368.96
928.026	343.43
928.325	399.6
928.624	402.16
928.923	448.12
929.222	397.05
929.52	323
929.819	356.2
930.118	335.77
930.417	302.58
930.715	379.18
931.014	333.22
931.312	389.39
931.611	420.03
931.909	409.82
932.207	366.41
932.506	368.96
932.804	279.59
933.102	397.05
933.401	361.3
933.699	343.43
933.997	376.62
934.295	356.2
934.593	333.22
934.891	371.52
935.189	338.32
935.487	368.96
935.784	353.64
936.082	302.58
936.38	320.45
936.677	412.37
936.975	412.37
937.273	312.79
937.57	287.26
937.868	274.49
938.165	351.09
938.463	376.62
938.76	414.92
939.057	381.73
939.354	358.75
939.652	351.09
939.949	368.96
940.246	353.64
940.543	320.45
940.84	325.56
941.137	422.58
941.434	315.34
941.731	394.5
942.028	427.69
942.324	312.79
942.621	366.41
942.918	389.39
943.214	394.5
943.511	363.86
943.807	374.07
944.104	389.39
944.4	397.05
944.697	323
944.993	404.71
945.29	409.82
945.586	351.09
945.882	353.64
946.178	363.86
946.474	379.18
946.77	335.77
947.066	351.09
947.362	394.5
947.658	363.86
947.954	345.98
948.25	368.96
948.546	345.98
948.842	379.18
949.137	348.54
949.433	404.71
949.729	351.09
950.024	358.75
950.32	294.92
950.615	325.56
950.91	368.96
951.206	402.16
951.501	356.2
951.796	333.22
952.092	363.86
952.387	391.94
952.682	356.2
952.977	348.54
953.272	338.32
953.567	384.28
953.862	417.48
954.157	389.39
954.452	315.34
954.747	376.62
955.041	338.32
955.336	363.86
955.631	371.52
955.925	368.96
956.22	358.75
956.514	340.88
956.809	338.32
957.103	417.48
957.398	361.3
957.692	325.56
957.986	381.73
958.281	356.2
958.575	363.86
958.869	315.34
959.163	338.32
959.457	345.98
959.751	358.75
960.045	379.18
960.339	455.78
960.633	361.3
960.927	358.75
961.221	381.73
961.514	351.09
961.808	297.47
962.102	427.69
962.395	402.16
962.689	376.62
962.982	371.52
963.276	412.37
963.569	414.92
963.862	402.16
964.156	292.36
964.449	448.12
964.742	376.62
965.035	328.11
965.328	325.56
965.622	333.22
965.915	368.96
966.208	323
966.5	391.94
966.793	338.32
967.086	348.54
967.379	381.73
967.672	394.5
967.964	402.16
968.257	340.88
968.55	417.48
968.842	361.3
969.135	343.43
969.427	335.77
969.72	381.73
970.012	358.75
970.304	402.16
970.597	363.86
970.889	379.18
971.181	345.98
971.473	325.56
971.765	310.24
972.057	287.26
972.349	310.24
972.641	348.54
972.933	333.22
973.225	351.09
973.517	366.41
973.809	443.01
974.1	407.26
974.392	317.9
974.684	300.02
974.975	348.54
975.267	381.73
975.558	323
975.85	351.09
976.141	340.88
976.432	325.56
976.724	325.56
977.015	384.28
977.306	310.24
977.597	335.77
977.888	379.18
978.179	368.96
978.47	374.07
978.761	305.13
979.052	328.11
979.343	294.92
979.634	300.02
979.925	323
980.215	353.64
980.506	366.41
980.797	323
981.087	320.45
981.378	333.22
981.668	348.54
981.959	333.22
982.249	328.11
982.54	361.3
982.83	317.9
983.12	345.98
983.41	435.35
983.701	366.41
983.991	310.24
984.281	294.92
984.571	358.75
984.861	358.75
985.151	333.22
985.441	391.94
985.73	399.6
986.02	264.27
986.31	376.62
986.6	379.18
986.889	386.84
987.179	391.94
987.469	435.35
987.758	389.39
988.048	386.84
988.337	404.71
988.626	376.62
988.916	368.96
989.205	335.77
989.494	353.64
989.783	302.58
990.073	374.07
990.362	386.84
990.651	379.18
990.94	363.86
991.229	420.03
991.518	379.18
991.806	368.96
992.095	330.66
992.384	379.18
992.673	366.41
992.961	330.66
993.25	402.16
993.539	366.41
993.827	386.84
994.116	374.07
994.404	305.13
994.692	320.45
994.981	343.43
995.269	425.14
995.557	307.68
995.846	358.75
996.134	386.84
996.422	389.39
996.71	368.96
996.998	274.49
997.286	300.02
997.574	343.43
997.862	330.66
998.15	437.9
998.437	368.96
998.725	371.52
999.013	384.28
999.3	371.52
999.588	379.18
999.876	320.45
1000.163	284.7
1000.45	353.64
1000.738	269.38
1001.025	356.2
1001.313	300.02
1001.6	358.75
1001.887	317.9
1002.174	335.77
1002.461	409.82
1002.748	391.94
1003.036	330.66
1003.322	402.16
1003.609	430.24
1003.896	397.05
1004.183	376.62
1004.47	376.62
1004.757	376.62
1005.043	361.3
1005.33	328.11
1005.617	348.54
1005.903	338.32
1006.19	343.43
1006.476	366.41
1006.763	345.98
1007.049	310.24
1007.335	310.24
1007.622	312.79
1007.908	358.75
1008.194	363.86
1008.48	397.05
1008.766	371.52
1009.053	399.6
1009.339	335.77
1009.625	420.03
1009.91	348.54
1010.196	345.98
1010.482	335.77
1010.768	312.79
1011.054	330.66
1011.339	376.62
1011.625	302.58
1011.911	425.14
1012.196	358.75
1012.482	305.13
1012.767	302.58
1013.052	363.86
1013.338	353.64
1013.623	366.41
1013.908	328.11
1014.194	307.68
1014.479	312.79
1014.764	368.96
1015.049	328.11
1015.334	294.92
1015.619	330.66
1015.904	338.32
1016.189	361.3
1016.474	371.52
1016.758	333.22
1017.043	376.62
1017.328	366.41
1017.613	371.52
1017.897	391.94
1018.182	353.64
1018.466	333.22
1018.751	338.32
1019.035	310.24
1019.32	417.48
1019.604	368.96
1019.888	358.75
1020.172	358.75
1020.457	358.75
