Data from 2025-12-03_xpw_interference_FLMS141361__26__14-42-19-479.txt Node

Date: Wed Dec 03 14:42:19 MST 2025
User: james
Spectrometer: FLMS14136
Trigger mode: 0
Integration Time (sec): 1.000000E-1
Scans to average: 1
Electric dark correction enabled: true
Nonlinearity correction enabled: false
Boxcar width: 0
XAxis mode: Wavelengths
Number of Pixels in Spectrum: 2048
>>>>>Begin Spectral Data<<<<<
339.315	-41.01
339.697	-41.01
340.079	-41.01
340.461	-102.29
340.843	-74.21
341.225	-61.44
341.607	-104.85
341.989	-104.85
342.371	-97.19
342.752	-97.19
343.134	-56.33
343.516	-92.08
343.897	30.48
344.279	27.93
344.661	7.5
345.042	38.14
345.423	45.8
345.805	81.55
346.186	107.08
346.567	163.26
346.949	112.19
347.33	176.02
347.711	183.68
348.092	206.66
348.473	204.11
348.854	244.96
349.235	257.73
349.616	250.07
349.997	313.91
350.378	357.31
350.758	372.63
351.139	359.87
351.52	288.37
351.9	362.42
352.281	290.93
352.661	359.87
353.042	375.19
353.422	405.83
353.803	421.15
354.183	436.47
354.563	370.08
354.943	423.7
355.324	377.74
355.704	354.76
356.084	377.74
356.464	410.93
356.844	329.23
357.224	398.17
357.603	387.95
357.983	382.85
358.363	436.47
358.743	390.51
359.122	367.53
359.502	341.99
359.882	421.15
360.261	296.03
360.641	334.33
361.02	367.53
361.399	329.23
361.779	380.29
362.158	387.95
362.537	357.31
362.916	301.14
363.296	354.76
363.675	313.91
364.054	362.42
364.433	393.06
364.812	359.87
365.19	311.35
365.569	316.46
365.948	349.65
366.327	324.12
366.705	232.2
367.084	359.87
367.463	290.93
367.841	421.15
368.22	296.03
368.598	336.89
368.977	380.29
369.355	390.51
369.733	359.87
370.111	311.35
370.49	418.59
370.868	421.15
371.246	303.69
371.624	313.91
372.002	354.76
372.38	347.1
372.758	339.44
373.136	290.93
373.513	336.89
373.891	301.14
374.269	326.67
374.646	319.01
375.024	375.19
375.402	347.1
375.779	359.87
376.157	372.63
376.534	359.87
376.911	341.99
377.289	357.31
377.666	370.08
378.043	319.01
378.42	416.04
378.797	380.29
379.175	428.81
379.552	349.65
379.929	303.69
380.305	290.93
380.682	395.61
381.059	331.78
381.436	400.72
381.813	367.53
382.189	303.69
382.566	341.99
382.943	390.51
383.319	329.23
383.696	408.38
384.072	377.74
384.448	339.44
384.825	349.65
385.201	436.47
385.577	290.93
385.953	377.74
386.329	375.19
386.706	426.25
387.082	387.95
387.458	339.44
387.834	382.85
388.209	321.57
388.585	382.85
388.961	382.85
389.337	370.08
389.713	324.12
390.088	354.76
390.464	370.08
390.839	344.55
391.215	308.8
391.59	352.21
391.966	362.42
392.341	339.44
392.716	377.74
393.092	370.08
393.467	385.4
393.842	354.76
394.217	400.72
394.592	449.23
394.967	370.08
395.342	367.53
395.717	362.42
396.092	421.15
396.467	382.85
396.841	334.33
397.216	347.1
397.591	395.61
397.965	410.93
398.34	319.01
398.714	408.38
399.089	357.31
399.463	423.7
399.838	395.61
400.212	400.72
400.586	408.38
400.961	444.13
401.335	416.04
401.709	382.85
402.083	395.61
402.457	357.31
402.831	364.97
403.205	352.21
403.579	400.72
403.953	413.49
404.326	387.95
404.7	382.85
405.074	349.65
405.447	288.37
405.821	400.72
406.195	403.27
406.568	410.93
406.942	456.9
407.315	421.15
407.688	385.4
408.062	354.76
408.435	400.72
408.808	403.27
409.181	380.29
409.554	362.42
409.927	311.35
410.3	370.08
410.673	416.04
411.046	339.44
411.419	308.8
411.792	380.29
412.165	400.72
412.537	372.63
412.91	405.83
413.283	426.25
413.655	431.36
414.028	405.83
414.4	395.61
414.773	377.74
415.145	362.42
415.517	405.83
415.889	413.49
416.262	428.81
416.634	377.74
417.006	400.72
417.378	372.63
417.75	364.97
418.122	347.1
418.494	398.17
418.866	380.29
419.238	395.61
419.609	306.25
419.981	372.63
420.353	449.23
420.725	405.83
421.096	372.63
421.468	403.27
421.839	375.19
422.211	408.38
422.582	408.38
422.953	370.08
423.325	390.51
423.696	367.53
424.067	352.21
424.438	393.06
424.809	364.97
425.18	405.83
425.551	413.49
425.922	436.47
426.293	359.87
426.664	393.06
427.035	505.41
427.406	416.04
427.776	398.17
428.147	344.55
428.518	426.25
428.888	395.61
429.259	367.53
429.629	454.34
429.999	387.95
430.37	403.27
430.74	362.42
431.11	393.06
431.481	349.65
431.851	387.95
432.221	395.61
432.591	354.76
432.961	405.83
433.331	400.72
433.701	418.59
434.071	387.95
434.441	362.42
434.81	398.17
435.18	380.29
435.55	413.49
435.919	413.49
436.289	431.36
436.658	367.53
437.028	354.76
437.397	385.4
437.767	410.93
438.136	344.55
438.505	423.7
438.875	428.81
439.244	505.41
439.613	426.25
439.982	454.34
440.351	349.65
440.72	372.63
441.089	426.25
441.458	454.34
441.827	395.61
442.196	436.47
442.564	487.54
442.933	398.17
443.302	431.36
443.67	459.45
444.039	444.13
444.407	377.74
444.776	413.49
445.144	421.15
445.513	352.21
445.881	359.87
446.249	336.89
446.617	370.08
446.986	370.08
447.354	421.15
447.722	390.51
448.09	382.85
448.458	375.19
448.826	462
449.194	370.08
449.561	405.83
449.929	370.08
450.297	459.45
450.665	390.51
451.032	416.04
451.4	423.7
451.767	416.04
452.135	382.85
452.502	380.29
452.87	433.91
453.237	456.9
453.604	393.06
453.971	395.61
454.339	431.36
454.706	405.83
455.073	367.53
455.44	308.8
455.807	387.95
456.174	416.04
456.541	403.27
456.908	398.17
457.274	405.83
457.641	439.02
458.008	418.59
458.374	370.08
458.741	423.7
459.108	413.49
459.474	413.49
459.841	372.63
460.207	421.15
460.573	324.12
460.94	492.64
461.306	482.43
461.672	416.04
462.038	431.36
462.404	444.13
462.771	441.57
463.137	405.83
463.503	449.23
463.868	456.9
464.234	385.4
464.6	426.25
464.966	357.31
465.332	439.02
465.697	413.49
466.063	377.74
466.429	393.06
466.794	454.34
467.16	423.7
467.525	416.04
467.89	387.95
468.256	375.19
468.621	380.29
468.986	364.97
469.351	408.38
469.717	418.59
470.082	316.46
470.447	385.4
470.812	372.63
471.177	403.27
471.542	413.49
471.906	403.27
472.271	408.38
472.636	395.61
473.001	446.68
473.365	405.83
473.73	421.15
474.094	439.02
474.459	413.49
474.823	449.23
475.188	382.85
475.552	431.36
475.917	433.91
476.281	370.08
476.645	372.63
477.009	405.83
477.373	426.25
477.737	451.79
478.101	436.47
478.465	405.83
478.829	393.06
479.193	393.06
479.557	349.65
479.921	439.02
480.284	393.06
480.648	410.93
481.012	492.64
481.375	405.83
481.739	433.91
482.102	426.25
482.466	400.72
482.829	451.79
483.193	433.91
483.556	344.55
483.919	372.63
484.282	446.68
484.645	405.83
485.009	380.29
485.372	393.06
485.735	446.68
486.098	408.38
486.46	357.31
486.823	324.12
487.186	380.29
487.549	372.63
487.912	393.06
488.274	428.81
488.637	439.02
488.999	410.93
489.362	400.72
489.724	426.25
490.087	423.7
490.449	331.78
490.811	395.61
491.174	380.29
491.536	382.85
491.898	416.04
492.26	441.57
492.622	367.53
492.984	344.55
493.346	421.15
493.708	449.23
494.07	370.08
494.432	372.63
494.794	347.1
495.155	400.72
495.517	403.27
495.879	421.15
496.24	441.57
496.602	382.85
496.963	385.4
497.325	441.57
497.686	395.61
498.048	426.25
498.409	446.68
498.77	387.95
499.131	446.68
499.492	387.95
499.854	428.81
500.215	490.09
500.576	495.2
500.937	428.81
501.298	398.17
501.658	418.59
502.019	423.7
502.38	446.68
502.741	377.74
503.101	439.02
503.462	418.59
503.823	400.72
504.183	357.31
504.543	439.02
504.904	423.7
505.264	439.02
505.625	380.29
505.985	439.02
506.345	433.91
506.705	477.32
507.065	357.31
507.426	344.55
507.786	347.1
508.146	364.97
508.505	341.99
508.865	367.53
509.225	387.95
509.585	423.7
509.945	382.85
510.304	456.9
510.664	479.88
511.024	433.91
511.383	416.04
511.743	400.72
512.102	418.59
512.462	408.38
512.821	416.04
513.18	387.95
513.539	441.57
513.899	464.56
514.258	341.99
514.617	444.13
514.976	418.59
515.335	462
515.694	456.9
516.053	416.04
516.412	431.36
516.771	408.38
517.129	395.61
517.488	387.95
517.847	372.63
518.205	364.97
518.564	393.06
518.922	408.38
519.281	377.74
519.639	359.87
519.998	403.27
520.356	344.55
520.714	352.21
521.073	377.74
521.431	410.93
521.789	421.15
522.147	403.27
522.505	375.19
522.863	393.06
523.221	426.25
523.579	451.79
523.937	446.68
524.295	428.81
524.652	446.68
525.01	387.95
525.368	410.93
525.725	403.27
526.083	377.74
526.44	382.85
526.798	403.27
527.155	416.04
527.513	375.19
527.87	413.49
528.227	416.04
528.584	477.32
528.942	464.56
529.299	423.7
529.656	385.4
530.013	393.06
530.37	433.91
530.727	385.4
531.083	390.51
531.44	454.34
531.797	421.15
532.154	456.9
532.511	393.06
532.867	456.9
533.224	400.72
533.58	431.36
533.937	418.59
534.293	416.04
534.65	459.45
535.006	385.4
535.362	431.36
535.718	469.66
536.075	449.23
536.431	398.17
536.787	408.38
537.143	400.72
537.499	408.38
537.855	377.74
538.211	418.59
538.567	418.59
538.923	436.47
539.278	398.17
539.634	403.27
539.99	403.27
540.345	357.31
540.701	474.77
541.056	454.34
541.412	364.97
541.767	405.83
542.123	454.34
542.478	359.87
542.833	324.12
543.188	382.85
543.544	408.38
543.899	405.83
544.254	380.29
544.609	377.74
544.964	431.36
545.319	439.02
545.674	439.02
546.029	390.51
546.383	428.81
546.738	436.47
547.093	459.45
547.447	393.06
547.802	410.93
548.157	408.38
548.511	418.59
548.866	408.38
549.22	395.61
549.574	482.43
549.929	367.53
550.283	372.63
550.637	377.74
550.991	428.81
551.345	390.51
551.699	367.53
552.053	416.04
552.407	418.59
552.761	413.49
553.115	451.79
553.469	428.81
553.823	439.02
554.176	439.02
554.53	405.83
554.884	380.29
555.237	556.48
555.591	433.91
555.944	428.81
556.298	393.06
556.651	349.65
557.005	385.4
557.358	441.57
557.711	398.17
558.064	441.57
558.417	400.72
558.771	428.81
559.124	416.04
559.477	418.59
559.83	405.83
560.182	390.51
560.535	444.13
560.888	444.13
561.241	428.81
561.594	393.06
561.946	349.65
562.299	324.12
562.651	492.64
563.004	433.91
563.356	390.51
563.709	380.29
564.061	428.81
564.413	364.97
564.766	364.97
565.118	416.04
565.47	410.93
565.822	393.06
566.174	347.1
566.526	357.31
566.878	413.49
567.23	431.36
567.582	313.91
567.934	393.06
568.286	444.13
568.638	421.15
568.989	400.72
569.341	439.02
569.693	364.97
570.044	395.61
570.396	385.4
570.747	375.19
571.098	372.63
571.45	387.95
571.801	352.21
572.152	413.49
572.504	393.06
572.855	395.61
573.206	423.7
573.557	359.87
573.908	395.61
574.259	421.15
574.61	398.17
574.961	359.87
575.311	395.61
575.662	469.66
576.013	364.97
576.364	403.27
576.714	405.83
577.065	403.27
577.415	352.21
577.766	433.91
578.116	395.61
578.467	469.66
578.817	441.57
579.167	385.4
579.518	349.65
579.868	418.59
580.218	362.42
580.568	359.87
580.918	377.74
581.268	364.97
581.618	387.95
581.968	416.04
582.318	380.29
582.668	454.34
583.017	433.91
583.367	439.02
583.717	413.49
584.066	472.22
584.416	395.61
584.765	431.36
585.115	387.95
585.464	390.51
585.814	329.23
586.163	352.21
586.512	436.47
586.862	428.81
587.211	400.72
587.56	380.29
587.909	431.36
588.258	387.95
588.607	439.02
588.956	441.57
589.305	359.87
589.654	395.61
590.002	423.7
590.351	382.85
590.7	390.51
591.048	308.8
591.397	347.1
591.746	375.19
592.094	416.04
592.443	364.97
592.791	421.15
593.139	413.49
593.488	418.59
593.836	393.06
594.184	393.06
594.532	421.15
594.88	426.25
595.228	433.91
595.576	421.15
595.924	390.51
596.272	410.93
596.62	449.23
596.968	502.86
597.316	426.25
597.664	446.68
598.011	385.4
598.359	352.21
598.706	395.61
599.054	352.21
599.402	413.49
599.749	362.42
600.096	395.61
600.444	444.13
600.791	431.36
601.138	385.4
601.485	385.4
601.833	439.02
602.18	359.87
602.527	421.15
602.874	408.38
603.221	459.45
603.568	433.91
603.914	416.04
604.261	421.15
604.608	418.59
604.955	423.7
605.301	416.04
605.648	393.06
605.995	400.72
606.341	398.17
606.688	431.36
607.034	377.74
607.38	380.29
607.727	410.93
608.073	398.17
608.419	405.83
608.765	387.95
609.112	410.93
609.458	380.29
609.804	393.06
610.15	403.27
610.496	449.23
610.842	410.93
611.187	354.76
611.533	456.9
611.879	421.15
612.225	413.49
612.57	390.51
612.916	484.98
613.261	413.49
613.607	456.9
613.952	426.25
614.298	456.9
614.643	410.93
614.989	359.87
615.334	357.31
615.679	398.17
616.024	352.21
616.369	349.65
616.714	390.51
617.059	444.13
617.404	454.34
617.749	405.83
618.094	370.08
618.439	497.75
618.784	431.36
619.129	375.19
619.473	398.17
619.818	390.51
620.163	433.91
620.507	436.47
620.852	418.59
621.196	413.49
621.54	421.15
621.885	451.79
622.229	341.99
622.573	362.42
622.918	375.19
623.262	431.36
623.606	467.11
623.95	441.57
624.294	421.15
624.638	449.23
624.982	334.33
625.326	352.21
625.67	354.76
626.013	380.29
626.357	372.63
626.701	382.85
627.044	354.76
627.388	377.74
627.731	410.93
628.075	416.04
628.418	441.57
628.762	326.67
629.105	403.27
629.448	431.36
629.792	377.74
630.135	375.19
630.478	454.34
630.821	385.4
631.164	339.44
631.507	341.99
631.85	306.25
632.193	395.61
632.536	352.21
632.879	395.61
633.221	395.61
633.564	362.42
633.907	367.53
634.249	421.15
634.592	403.27
634.935	331.78
635.277	395.61
635.619	449.23
635.962	421.15
636.304	410.93
636.646	400.72
636.989	387.95
637.331	367.53
637.673	400.72
638.015	385.4
638.357	385.4
638.699	382.85
639.041	459.45
639.383	385.4
639.725	454.34
640.067	428.81
640.408	334.33
640.75	428.81
641.092	347.1
641.433	375.19
641.775	403.27
642.116	469.66
642.458	403.27
642.799	403.27
643.141	464.56
643.482	436.47
643.823	372.63
644.164	359.87
644.506	502.86
644.847	370.08
645.188	347.1
645.529	467.11
645.87	436.47
646.211	487.54
646.552	395.61
646.893	418.59
647.233	377.74
647.574	418.59
647.915	387.95
648.255	372.63
648.596	387.95
648.937	357.31
649.277	423.7
649.618	398.17
649.958	359.87
650.298	387.95
650.639	444.13
650.979	431.36
651.319	367.53
651.659	385.4
651.999	444.13
652.339	405.83
652.679	370.08
653.019	413.49
653.359	474.77
653.699	467.11
654.039	459.45
654.379	385.4
654.719	395.61
655.058	426.25
655.398	479.88
655.737	505.41
656.077	357.31
656.416	418.59
656.756	418.59
657.095	326.67
657.435	329.23
657.774	331.78
658.113	362.42
658.452	377.74
658.792	377.74
659.131	410.93
659.47	467.11
659.809	477.32
660.148	423.7
660.487	387.95
660.826	390.51
661.164	464.56
661.503	403.27
661.842	359.87
662.181	377.74
662.519	395.61
662.858	334.33
663.196	482.43
663.535	405.83
663.873	469.66
664.212	423.7
664.55	408.38
664.888	431.36
665.226	413.49
665.565	413.49
665.903	543.71
666.241	413.49
666.579	395.61
666.917	426.25
667.255	467.11
667.593	395.61
667.931	446.68
668.268	413.49
668.606	439.02
668.944	372.63
669.282	367.53
669.619	413.49
669.957	390.51
670.294	393.06
670.632	410.93
670.969	469.66
671.307	456.9
671.644	446.68
671.981	436.47
672.318	380.29
672.656	347.1
672.993	341.99
673.33	357.31
673.667	398.17
674.004	431.36
674.341	433.91
674.678	370.08
675.015	408.38
675.351	418.59
675.688	359.87
676.025	375.19
676.362	400.72
676.698	444.13
677.035	423.7
677.371	426.25
677.708	372.63
678.044	364.97
678.38	431.36
678.717	462
679.053	413.49
679.389	385.4
679.725	403.27
680.062	405.83
680.398	410.93
680.734	359.87
681.07	367.53
681.406	375.19
681.742	403.27
682.077	390.51
682.413	421.15
682.749	393.06
683.085	367.53
683.42	385.4
683.756	380.29
684.091	364.97
684.427	462
684.762	393.06
685.098	367.53
685.433	410.93
685.768	393.06
686.104	395.61
686.439	400.72
686.774	362.42
687.109	354.76
687.444	441.57
687.779	403.27
688.114	446.68
688.449	436.47
688.784	413.49
689.119	364.97
689.454	390.51
689.789	382.85
690.123	387.95
690.458	410.93
690.792	382.85
691.127	436.47
691.461	416.04
691.796	393.06
692.13	364.97
692.465	395.61
692.799	367.53
693.133	387.95
693.467	375.19
693.802	367.53
694.136	387.95
694.47	439.02
694.804	428.81
695.138	377.74
695.472	418.59
695.806	495.2
696.139	377.74
696.473	347.1
696.807	413.49
697.141	418.59
697.474	405.83
697.808	449.23
698.141	510.52
698.475	416.04
698.808	444.13
699.142	459.45
699.475	439.02
699.808	459.45
700.142	423.7
700.475	446.68
700.808	449.23
701.141	418.59
701.474	387.95
701.807	364.97
702.14	408.38
702.473	418.59
702.806	439.02
703.139	382.85
703.472	449.23
703.804	428.81
704.137	377.74
704.47	398.17
704.802	405.83
705.135	413.49
705.467	398.17
705.8	459.45
706.132	352.21
706.464	398.17
706.797	416.04
707.129	352.21
707.461	362.42
707.793	446.68
708.125	449.23
708.457	413.49
708.789	385.4
709.121	446.68
709.453	387.95
709.785	387.95
710.117	385.4
710.449	352.21
710.781	418.59
711.112	500.3
711.444	423.7
711.775	459.45
712.107	426.25
712.438	403.27
712.77	418.59
713.101	426.25
713.433	398.17
713.764	377.74
714.095	344.55
714.426	377.74
714.757	382.85
715.089	387.95
715.42	444.13
715.751	439.02
716.082	387.95
716.412	436.47
716.743	454.34
717.074	446.68
717.405	439.02
717.736	331.78
718.066	357.31
718.397	375.19
718.727	387.95
719.058	398.17
719.388	456.9
719.719	428.81
720.049	398.17
720.38	377.74
720.71	352.21
721.04	439.02
721.37	347.1
721.7	367.53
722.031	413.49
722.361	405.83
722.691	433.91
723.021	382.85
723.35	449.23
723.68	390.51
724.01	372.63
724.34	416.04
724.67	426.25
724.999	357.31
725.329	344.55
725.658	436.47
725.988	393.06
726.317	479.88
726.647	449.23
726.976	398.17
727.306	377.74
727.635	354.76
727.964	403.27
728.293	377.74
728.622	408.38
728.952	403.27
729.281	403.27
729.61	416.04
729.939	372.63
730.267	428.81
730.596	364.97
730.925	405.83
731.254	408.38
731.583	395.61
731.911	423.7
732.24	423.7
732.568	336.89
732.897	367.53
733.225	433.91
733.554	364.97
733.882	354.76
734.21	403.27
734.539	336.89
734.867	375.19
735.195	382.85
735.523	398.17
735.851	395.61
736.179	428.81
736.507	331.78
736.835	436.47
737.163	398.17
737.491	474.77
737.819	377.74
738.147	349.65
738.474	377.74
738.802	367.53
739.13	421.15
739.457	413.49
739.785	385.4
740.112	433.91
740.44	418.59
740.767	395.61
741.094	395.61
741.422	367.53
741.749	364.97
742.076	377.74
742.403	408.38
742.73	377.74
743.057	377.74
743.384	372.63
743.711	423.7
744.038	398.17
744.365	408.38
744.692	347.1
745.018	416.04
745.345	319.01
745.672	362.42
745.998	336.89
746.325	408.38
746.651	290.93
746.978	375.19
747.304	395.61
747.631	413.49
747.957	459.45
748.283	380.29
748.61	398.17
748.936	387.95
749.262	426.25
749.588	387.95
749.914	446.68
750.24	387.95
750.566	382.85
750.892	393.06
751.218	347.1
751.543	393.06
751.869	393.06
752.195	385.4
752.521	390.51
752.846	423.7
753.172	426.25
753.497	349.65
753.823	367.53
754.148	334.33
754.473	385.4
754.799	408.38
755.124	456.9
755.449	454.34
755.774	352.21
756.1	439.02
756.425	382.85
756.75	347.1
757.075	436.47
757.4	589.67
757.724	362.42
758.049	349.65
758.374	408.38
758.699	306.25
759.024	347.1
759.348	436.47
759.673	446.68
759.997	398.17
760.322	347.1
760.646	418.59
760.971	423.7
761.295	418.59
761.619	393.06
761.944	357.31
762.268	398.17
762.592	421.15
762.916	403.27
763.24	395.61
763.564	398.17
763.888	444.13
764.212	446.68
764.536	370.08
764.86	393.06
765.184	423.7
765.508	395.61
765.831	444.13
766.155	645.85
766.478	497.75
766.802	487.54
767.126	439.02
767.449	507.96
767.772	416.04
768.096	474.77
768.419	582.01
768.742	587.12
769.066	576.9
769.389	571.8
769.712	579.46
770.035	597.33
770.358	610.1
770.681	594.78
771.004	663.72
771.327	602.44
771.65	656.06
771.972	653.51
772.295	747.98
772.618	648.4
772.941	725
773.263	732.66
773.586	806.71
773.908	747.98
774.231	788.83
774.553	837.35
774.875	796.49
775.198	862.88
775.52	865.44
775.842	839.9
776.164	765.85
776.487	827.13
776.809	829.69
777.131	867.99
777.453	916.5
777.775	903.74
778.096	873.1
778.418	896.08
778.74	970.12
779.062	1010.98
779.384	1003.32
779.705	1059.49
780.027	1123.33
780.348	1026.3
780.67	1179.5
780.991	1064.6
781.313	1169.29
781.634	1286.74
781.955	1248.44
782.277	1182.05
782.598	1233.12
782.919	1391.43
783.24	1373.56
783.561	1233.12
783.882	1286.74
784.203	1286.74
784.524	1263.76
784.845	1294.4
785.166	1424.63
785.487	1419.52
785.807	1455.27
786.128	1485.91
786.449	1516.55
786.769	1427.18
787.09	1531.87
787.41	1733.58
787.731	1697.84
788.051	1697.84
788.372	1736.14
788.692	1669.75
789.012	1715.71
789.332	1718.26
789.653	1845.93
789.973	2022.12
790.293	2014.46
790.613	1909.77
790.933	1851.04
791.253	1935.3
791.573	1981.26
791.893	2080.84
792.212	2017.01
792.532	1948.07
792.852	1953.17
793.171	1879.13
793.491	1853.59
793.811	1738.69
794.13	1618.68
794.45	1432.29
794.769	1424.63
795.088	1401.64
795.408	1406.75
795.727	1539.53
796.046	1524.21
796.365	1595.7
796.684	1667.2
797.004	1889.34
797.323	1991.48
797.642	1948.07
797.96	1881.68
798.279	2029.78
798.598	2124.25
798.917	1894.45
799.236	1991.48
799.554	1897
799.873	1700.39
800.192	1700.39
800.51	1687.62
800.829	1715.71
801.147	1639.11
801.466	1754.01
801.784	1754.01
802.102	1754.01
802.421	1720.82
802.739	1891.89
803.057	1776.99
803.375	1659.54
803.693	1577.83
804.011	1759.12
804.329	1779.54
804.647	1710.6
804.965	1708.05
805.283	1611.02
805.601	1549.74
805.918	1488.46
806.236	1508.89
806.554	1713.16
806.871	1613.58
807.189	1608.47
807.507	1547.19
807.824	1496.12
808.141	1409.31
808.459	1312.28
808.776	1325.04
809.093	1207.59
809.411	1217.8
809.728	1353.13
810.045	1365.9
810.362	1276.53
810.679	1396.54
810.996	1340.36
811.313	1273.98
811.63	1358.24
811.947	1215.25
812.264	1148.86
812.58	1228.02
812.897	1353.13
813.214	1429.73
813.53	1215.25
813.847	1141.2
814.163	1054.39
814.48	1095.24
814.796	1179.5
815.113	1108.01
815.429	1072.26
815.745	1074.81
816.061	1033.96
816.378	988
816.694	931.82
817.01	924.16
817.326	1064.6
817.642	952.25
817.958	954.8
818.274	926.72
818.59	988
818.905	962.46
819.221	1033.96
819.537	993.1
819.852	944.59
820.168	965.02
820.484	860.33
820.799	880.76
821.115	839.9
821.43	901.18
821.745	839.9
822.061	814.37
822.376	727.55
822.691	783.73
823.006	783.73
823.322	845.01
823.637	745.43
823.952	742.87
824.267	679.04
824.582	653.51
824.897	582.01
825.211	679.04
825.526	627.97
825.841	742.87
826.156	770.96
826.47	770.96
826.785	742.87
827.1	671.38
827.414	663.72
827.729	640.74
828.043	712.23
828.357	612.65
828.672	541.16
828.986	576.9
829.3	551.37
829.614	505.41
829.929	602.44
830.243	668.83
830.557	528.39
830.871	602.44
831.185	574.35
831.499	520.73
831.812	569.24
832.126	602.44
832.44	515.62
832.754	599.88
833.067	571.8
833.381	510.52
833.695	479.88
834.008	431.36
834.322	474.77
834.635	469.66
834.948	561.58
835.262	530.94
835.575	416.04
835.888	441.57
836.201	479.88
836.515	454.34
836.828	444.13
837.141	495.2
837.454	492.64
837.767	449.23
838.08	416.04
838.392	456.9
838.705	456.9
839.018	492.64
839.331	474.77
839.643	490.09
839.956	439.02
840.269	444.13
840.581	385.4
840.894	472.22
841.206	413.49
841.519	530.94
841.831	492.64
842.143	433.91
842.455	395.61
842.768	441.57
843.08	428.81
843.392	390.51
843.704	426.25
844.016	382.85
844.328	467.11
844.64	444.13
844.952	349.65
845.263	444.13
845.575	467.11
845.887	433.91
846.199	410.93
846.51	354.76
846.822	370.08
847.133	398.17
847.445	416.04
847.756	441.57
848.068	387.95
848.379	497.75
848.69	428.81
849.002	398.17
849.313	364.97
849.624	398.17
849.935	393.06
850.246	433.91
850.557	423.7
850.868	413.49
851.179	393.06
851.49	482.43
851.801	375.19
852.112	359.87
852.422	513.07
852.733	416.04
853.044	395.61
853.354	367.53
853.665	364.97
853.975	370.08
854.286	306.25
854.596	439.02
854.906	408.38
855.217	418.59
855.527	359.87
855.837	398.17
856.147	408.38
856.458	459.45
856.768	444.13
857.078	400.72
857.388	382.85
857.698	387.95
858.007	398.17
858.317	405.83
858.627	421.15
858.937	354.76
859.246	336.89
859.556	398.17
859.866	352.21
860.175	421.15
860.485	449.23
860.794	433.91
861.104	398.17
861.413	334.33
861.722	339.44
862.032	316.46
862.341	451.79
862.65	398.17
862.959	316.46
863.268	441.57
863.577	382.85
863.886	390.51
864.195	372.63
864.504	331.78
864.813	370.08
865.122	410.93
865.43	410.93
865.739	395.61
866.048	436.47
866.356	421.15
866.665	421.15
866.973	421.15
867.282	357.31
867.59	367.53
867.899	502.86
868.207	385.4
868.515	416.04
868.823	439.02
869.132	444.13
869.44	380.29
869.748	336.89
870.056	347.1
870.364	393.06
870.672	421.15
870.98	405.83
871.288	347.1
871.595	479.88
871.903	416.04
872.211	364.97
872.518	393.06
872.826	413.49
873.134	398.17
873.441	444.13
873.749	413.49
874.056	400.72
874.363	359.87
874.671	367.53
874.978	416.04
875.285	416.04
875.592	431.36
875.9	359.87
876.207	433.91
876.514	418.59
876.821	423.7
877.128	385.4
877.435	441.57
877.741	416.04
878.048	403.27
878.355	370.08
878.662	449.23
878.968	395.61
879.275	423.7
879.582	380.29
879.888	395.61
880.195	347.1
880.501	398.17
880.807	390.51
881.114	375.19
881.42	403.27
881.726	433.91
882.032	362.42
882.339	370.08
882.645	413.49
882.951	390.51
883.257	400.72
883.563	364.97
883.869	431.36
884.174	390.51
884.48	410.93
884.786	400.72
885.092	377.74
885.397	385.4
885.703	431.36
886.009	446.68
886.314	400.72
886.62	357.31
886.925	403.27
887.231	390.51
887.536	393.06
887.841	354.76
888.146	413.49
888.452	385.4
888.757	400.72
889.062	416.04
889.367	428.81
889.672	344.55
889.977	367.53
890.282	380.29
890.587	377.74
890.892	367.53
891.196	454.34
891.501	387.95
891.806	431.36
892.11	372.63
892.415	357.31
892.72	477.32
893.024	382.85
893.328	513.07
893.633	380.29
893.937	398.17
894.242	393.06
894.546	380.29
894.85	405.83
895.154	370.08
895.458	382.85
895.762	390.51
896.066	436.47
896.37	352.21
896.674	385.4
896.978	410.93
897.282	416.04
897.586	377.74
897.89	436.47
898.193	398.17
898.497	400.72
898.801	469.66
899.104	428.81
899.408	341.99
899.711	357.31
900.014	390.51
900.318	423.7
900.621	403.27
900.924	426.25
901.228	367.53
901.531	354.76
901.834	405.83
902.137	364.97
902.44	321.57
902.743	321.57
903.046	357.31
903.349	352.21
903.652	413.49
903.955	451.79
904.257	395.61
904.56	393.06
904.863	416.04
905.165	349.65
905.468	487.54
905.77	387.95
906.073	446.68
906.375	377.74
906.678	380.29
906.98	336.89
907.282	311.35
907.584	433.91
907.887	444.13
908.189	329.23
908.491	408.38
908.793	375.19
909.095	390.51
909.397	359.87
909.699	416.04
910.001	357.31
910.302	398.17
910.604	390.51
910.906	308.8
911.208	367.53
911.509	372.63
911.811	413.49
912.112	431.36
912.414	405.83
912.715	352.21
913.017	324.12
913.318	462
913.619	405.83
913.92	382.85
914.222	354.76
914.523	423.7
914.824	354.76
915.125	372.63
915.426	410.93
915.727	418.59
916.028	329.23
916.329	398.17
916.63	390.51
916.93	359.87
917.231	362.42
917.532	400.72
917.832	398.17
918.133	364.97
918.434	344.55
918.734	370.08
919.034	349.65
919.335	367.53
919.635	393.06
919.935	382.85
920.236	349.65
920.536	380.29
920.836	403.27
921.136	410.93
921.436	482.43
921.736	390.51
922.036	313.91
922.336	405.83
922.636	395.61
922.936	339.44
923.236	421.15
923.535	418.59
923.835	372.63
924.135	449.23
924.434	319.01
924.734	390.51
925.033	352.21
925.333	359.87
925.632	403.27
925.932	426.25
926.231	467.11
926.53	436.47
926.83	482.43
927.129	395.61
927.428	336.89
927.727	367.53
928.026	408.38
928.325	416.04
928.624	393.06
928.923	341.99
929.222	352.21
929.52	372.63
929.819	444.13
930.118	354.76
930.417	375.19
930.715	380.29
931.014	421.15
931.312	436.47
931.611	372.63
931.909	398.17
932.207	375.19
932.506	349.65
932.804	413.49
933.102	370.08
933.401	403.27
933.699	377.74
933.997	313.91
934.295	370.08
934.593	364.97
934.891	385.4
935.189	423.7
935.487	444.13
935.784	359.87
936.082	428.81
936.38	367.53
936.677	421.15
936.975	359.87
937.273	324.12
937.57	372.63
937.868	367.53
938.165	334.33
938.463	421.15
938.76	347.1
939.057	364.97
939.354	403.27
939.652	352.21
939.949	344.55
940.246	413.49
940.543	382.85
940.84	395.61
941.137	436.47
941.434	408.38
941.731	426.25
942.028	410.93
942.324	352.21
942.621	321.57
942.918	362.42
943.214	398.17
943.511	421.15
943.807	405.83
944.104	395.61
944.4	370.08
944.697	347.1
944.993	354.76
945.29	398.17
945.586	367.53
945.882	334.33
946.178	382.85
946.474	449.23
946.77	367.53
947.066	439.02
947.362	367.53
947.658	410.93
947.954	393.06
948.25	428.81
948.546	372.63
948.842	423.7
949.137	451.79
949.433	364.97
949.729	331.78
950.024	344.55
950.32	400.72
950.615	375.19
950.91	347.1
951.206	375.19
951.501	408.38
951.796	349.65
952.092	439.02
952.387	428.81
952.682	382.85
952.977	398.17
953.272	375.19
953.567	423.7
953.862	367.53
954.157	431.36
954.452	352.21
954.747	418.59
955.041	395.61
955.336	367.53
955.631	339.44
955.925	370.08
956.22	357.31
956.514	372.63
956.809	372.63
957.103	349.65
957.398	395.61
957.692	352.21
957.986	324.12
958.281	359.87
958.575	395.61
958.869	367.53
959.163	395.61
959.457	347.1
959.751	385.4
960.045	408.38
960.339	428.81
960.633	413.49
960.927	347.1
961.221	387.95
961.514	372.63
961.808	393.06
962.102	359.87
962.395	423.7
962.689	336.89
962.982	416.04
963.276	324.12
963.569	329.23
963.862	380.29
964.156	439.02
964.449	444.13
964.742	372.63
965.035	359.87
965.328	313.91
965.622	372.63
965.915	385.4
966.208	405.83
966.5	364.97
966.793	408.38
967.086	421.15
967.379	377.74
967.672	398.17
967.964	439.02
968.257	393.06
968.55	359.87
968.842	377.74
969.135	341.99
969.427	362.42
969.72	349.65
970.012	400.72
970.304	403.27
970.597	334.33
970.889	334.33
971.181	385.4
971.473	441.57
971.765	380.29
972.057	428.81
972.349	433.91
972.641	347.1
972.933	339.44
973.225	416.04
973.517	352.21
973.809	293.48
974.1	398.17
974.392	370.08
974.684	423.7
974.975	410.93
975.267	357.31
975.558	336.89
975.85	324.12
976.141	339.44
976.432	395.61
976.724	367.53
977.015	352.21
977.306	341.99
977.597	339.44
977.888	413.49
978.179	382.85
978.47	344.55
978.761	334.33
979.052	380.29
979.343	421.15
979.634	400.72
979.925	341.99
980.215	372.63
980.506	405.83
980.797	405.83
981.087	359.87
981.378	329.23
981.668	410.93
981.959	372.63
982.249	321.57
982.54	380.29
982.83	456.9
983.12	395.61
983.41	436.47
983.701	502.86
983.991	339.44
984.281	377.74
984.571	336.89
984.861	413.49
985.151	380.29
985.441	354.76
985.73	393.06
986.02	393.06
986.31	436.47
986.6	395.61
986.889	393.06
987.179	380.29
987.469	416.04
987.758	393.06
988.048	372.63
988.337	364.97
988.626	426.25
988.916	439.02
989.205	400.72
989.494	421.15
989.783	413.49
990.073	413.49
990.362	444.13
990.651	354.76
990.94	370.08
991.229	446.68
991.518	339.44
991.806	405.83
992.095	357.31
992.384	405.83
992.673	428.81
992.961	431.36
993.25	336.89
993.539	423.7
993.827	408.38
994.116	387.95
994.404	405.83
994.692	336.89
994.981	400.72
995.269	372.63
995.557	372.63
995.846	393.06
996.134	433.91
996.422	446.68
996.71	416.04
996.998	421.15
997.286	344.55
997.574	339.44
997.862	393.06
998.15	290.93
998.437	385.4
998.725	393.06
999.013	344.55
999.3	410.93
999.588	364.97
999.876	403.27
1000.163	390.51
1000.45	387.95
1000.738	359.87
1001.025	387.95
1001.313	390.51
1001.6	380.29
1001.887	331.78
1002.174	405.83
1002.461	306.25
1002.748	298.59
1003.036	380.29
1003.322	395.61
1003.609	367.53
1003.896	382.85
1004.183	364.97
1004.47	370.08
1004.757	382.85
1005.043	387.95
1005.33	380.29
1005.617	382.85
1005.903	359.87
1006.19	370.08
1006.476	439.02
1006.763	395.61
1007.049	416.04
1007.335	400.72
1007.622	421.15
1007.908	377.74
1008.194	393.06
1008.48	372.63
1008.766	400.72
1009.053	334.33
1009.339	433.91
1009.625	405.83
1009.91	462
1010.196	395.61
1010.482	357.31
1010.768	339.44
1011.054	357.31
1011.339	426.25
1011.625	367.53
1011.911	367.53
1012.196	421.15
1012.482	398.17
1012.767	382.85
1013.052	454.34
1013.338	352.21
1013.623	390.51
1013.908	382.85
1014.194	324.12
1014.479	446.68
1014.764	395.61
1015.049	370.08
1015.334	390.51
1015.619	387.95
1015.904	372.63
1016.189	444.13
1016.474	410.93
1016.758	395.61
1017.043	377.74
1017.328	405.83
1017.613	405.83
1017.897	308.8
1018.182	408.38
1018.466	321.57
1018.751	367.53
1019.035	352.21
1019.32	375.19
1019.604	372.63
1019.888	426.25
1020.172	426.25
1020.457	426.25
