Data from 2025-11-25_spectrum_FLMS141361__9__14-44-05-182.txt Node

Date: Tue Nov 25 14:44:05 MST 2025
User: james
Spectrometer: FLMS14136
Trigger mode: 0
Integration Time (sec): 1.000000E-1
Scans to average: 1
Electric dark correction enabled: true
Nonlinearity correction enabled: false
Boxcar width: 0
XAxis mode: Wavelengths
Number of Pixels in Spectrum: 2048
>>>>>Begin Spectral Data<<<<<
339.315	-30
339.697	-30
340.079	-30
340.461	-101.5
340.843	-152.56
341.225	-114.26
341.607	-106.6
341.989	-96.39
342.371	-68.3
342.752	-27.45
343.134	-83.62
343.516	0.64
343.897	-55.54
344.279	5.75
344.661	21.07
345.042	49.15
345.423	-1.92
345.805	133.41
346.186	72.13
346.567	135.97
346.949	135.97
347.33	110.43
347.711	166.61
348.092	207.46
348.473	250.87
348.854	301.94
349.235	273.85
349.616	317.26
349.997	296.83
350.378	276.4
350.758	337.68
351.139	319.81
351.52	375.98
351.9	386.2
352.281	319.81
352.661	406.63
353.042	353
353.422	427.05
353.803	365.77
354.183	404.07
354.563	432.16
354.943	429.61
355.324	386.2
355.704	370.88
356.084	383.65
356.464	342.79
356.844	386.2
357.224	381.09
357.603	347.9
357.983	358.11
358.363	439.82
358.743	391.31
359.122	373.43
359.502	324.92
359.882	391.31
360.261	442.37
360.641	414.29
361.02	424.5
361.399	335.13
361.779	296.83
362.158	363.22
362.537	373.43
362.916	327.47
363.296	319.81
363.675	365.77
364.054	353
364.433	378.54
364.812	335.13
365.19	388.75
365.569	401.52
365.948	378.54
366.327	350.45
366.705	324.92
367.084	355.56
367.463	368.32
367.841	391.31
368.22	353
368.598	370.88
368.977	335.13
369.355	319.81
369.733	307.04
370.111	286.62
370.49	393.86
370.868	335.13
371.246	363.22
371.624	401.52
372.002	396.41
372.38	296.83
372.758	375.98
373.136	363.22
373.513	388.75
373.891	386.2
374.269	391.31
374.646	375.98
375.024	450.03
375.402	319.81
375.779	375.98
376.157	327.47
376.534	375.98
376.911	335.13
377.289	327.47
377.666	319.81
378.043	335.13
378.42	401.52
378.797	330.02
379.175	350.45
379.552	347.9
379.929	391.31
380.305	322.36
380.682	419.39
381.059	398.97
381.436	386.2
381.813	353
382.189	393.86
382.566	381.09
382.943	360.66
383.319	340.24
383.696	373.43
384.072	322.36
384.448	363.22
384.825	358.11
385.201	383.65
385.577	353
385.953	368.32
386.329	393.86
386.706	437.27
387.082	383.65
387.458	398.97
387.834	335.13
388.209	322.36
388.585	360.66
388.961	322.36
389.337	396.41
389.713	406.63
390.088	388.75
390.464	429.61
390.839	439.82
391.215	432.16
391.59	411.73
391.966	411.73
392.341	360.66
392.716	278.96
393.092	450.03
393.467	312.15
393.842	312.15
394.217	404.07
394.592	444.93
394.967	355.56
395.342	358.11
395.717	347.9
396.092	373.43
396.467	393.86
396.841	386.2
397.216	375.98
397.591	406.63
397.965	347.9
398.34	368.32
398.714	401.52
399.089	411.73
399.463	416.84
399.838	375.98
400.212	375.98
400.586	393.86
400.961	353
401.335	406.63
401.709	381.09
402.083	411.73
402.457	419.39
402.831	353
403.205	386.2
403.579	460.25
403.953	398.97
404.326	427.05
404.7	450.03
405.074	421.95
405.447	355.56
405.821	386.2
406.195	340.24
406.568	391.31
406.942	429.61
407.315	386.2
407.688	391.31
408.062	368.32
408.435	388.75
408.808	365.77
409.181	386.2
409.554	332.58
409.927	370.88
410.3	462.8
410.673	401.52
411.046	381.09
411.419	358.11
411.792	353
412.165	347.9
412.537	373.43
412.91	363.22
413.283	437.27
413.655	383.65
414.028	381.09
414.4	414.29
414.773	409.18
415.145	421.95
415.517	398.97
415.889	353
416.262	404.07
416.634	401.52
417.006	378.54
417.378	319.81
417.75	368.32
418.122	358.11
418.494	347.9
418.866	360.66
419.238	404.07
419.609	355.56
419.981	360.66
420.353	365.77
420.725	378.54
421.096	444.93
421.468	360.66
421.839	465.35
422.211	401.52
422.582	457.69
422.953	388.75
423.325	465.35
423.696	388.75
424.067	429.61
424.438	391.31
424.809	365.77
425.18	398.97
425.551	401.52
425.922	406.63
426.293	404.07
426.664	457.69
427.035	467.91
427.406	388.75
427.776	401.52
428.147	373.43
428.518	375.98
428.888	411.73
429.259	391.31
429.629	347.9
429.999	337.68
430.37	391.31
430.74	470.46
431.11	470.46
431.481	401.52
431.851	462.8
432.221	393.86
432.591	442.37
432.961	360.66
433.331	373.43
433.701	383.65
434.071	383.65
434.441	409.18
434.81	368.32
435.18	383.65
435.55	347.9
435.919	398.97
436.289	355.56
436.658	462.8
437.028	393.86
437.397	411.73
437.767	350.45
438.136	416.84
438.505	393.86
438.875	373.43
439.244	455.14
439.613	373.43
439.982	406.63
440.351	490.89
440.72	444.93
441.089	424.5
441.458	414.29
441.827	391.31
442.196	401.52
442.564	470.46
442.933	429.61
443.302	373.43
443.67	414.29
444.039	373.43
444.407	427.05
444.776	365.77
445.144	388.75
445.513	419.39
445.881	424.5
446.249	427.05
446.617	462.8
446.986	544.51
447.354	478.12
447.722	322.36
448.09	396.41
448.458	429.61
448.826	485.78
449.194	488.33
449.561	429.61
449.929	442.37
450.297	309.6
450.665	358.11
451.032	478.12
451.4	391.31
451.767	460.25
452.135	409.18
452.502	396.41
452.87	427.05
453.237	450.03
453.604	401.52
453.971	437.27
454.339	421.95
454.706	416.84
455.073	391.31
455.44	434.71
455.807	421.95
456.174	460.25
456.541	462.8
456.908	393.86
457.274	373.43
457.641	393.86
458.008	391.31
458.374	378.54
458.741	434.71
459.108	429.61
459.474	414.29
459.841	404.07
460.207	401.52
460.573	388.75
460.94	432.16
461.306	414.29
461.672	429.61
462.038	465.35
462.404	427.05
462.771	439.82
463.137	419.39
463.503	483.23
463.868	409.18
464.234	406.63
464.6	360.66
464.966	432.16
465.332	450.03
465.697	401.52
466.063	381.09
466.429	439.82
466.794	455.14
467.16	457.69
467.525	398.97
467.89	414.29
468.256	437.27
468.621	398.97
468.986	411.73
469.351	452.59
469.717	465.35
470.082	421.95
470.447	386.2
470.812	393.86
471.177	511.31
471.542	470.46
471.906	424.5
472.271	493.44
472.636	444.93
473.001	447.48
473.365	432.16
473.73	434.71
474.094	444.93
474.459	434.71
474.823	421.95
475.188	398.97
475.552	383.65
475.917	465.35
476.281	475.57
476.645	444.93
477.009	391.31
477.373	398.97
477.737	347.9
478.101	444.93
478.465	460.25
478.829	404.07
479.193	416.84
479.557	442.37
479.921	383.65
480.284	416.84
480.648	398.97
481.012	427.05
481.375	373.43
481.739	393.86
482.102	375.98
482.466	411.73
482.829	452.59
483.193	429.61
483.556	353
483.919	370.88
484.282	398.97
484.645	414.29
485.009	381.09
485.372	409.18
485.735	409.18
486.098	411.73
486.46	434.71
486.823	388.75
487.186	355.56
487.549	386.2
487.912	434.71
488.274	332.58
488.637	427.05
488.999	396.41
489.362	406.63
489.724	388.75
490.087	383.65
490.449	421.95
490.811	493.44
491.174	391.31
491.536	421.95
491.898	393.86
492.26	393.86
492.622	383.65
492.984	424.5
493.346	444.93
493.708	398.97
494.07	383.65
494.432	398.97
494.794	455.14
495.155	429.61
495.517	406.63
495.879	388.75
496.24	345.34
496.602	393.86
496.963	427.05
497.325	488.33
497.686	432.16
498.048	375.98
498.409	439.82
498.77	488.33
499.131	473.01
499.492	434.71
499.854	411.73
500.215	411.73
500.576	442.37
500.937	424.5
501.298	404.07
501.658	398.97
502.019	414.29
502.38	409.18
502.741	429.61
503.101	368.32
503.462	513.87
503.823	450.03
504.183	391.31
504.543	386.2
504.904	350.45
505.264	434.71
505.625	401.52
505.985	404.07
506.345	442.37
506.705	429.61
507.065	388.75
507.426	460.25
507.786	439.82
508.146	373.43
508.505	432.16
508.865	442.37
509.225	452.59
509.585	447.48
509.945	434.71
510.304	419.39
510.664	465.35
511.024	450.03
511.383	427.05
511.743	404.07
512.102	488.33
512.462	470.46
512.821	488.33
513.18	421.95
513.539	419.39
513.899	370.88
514.258	462.8
514.617	447.48
514.976	347.9
515.335	416.84
515.694	444.93
516.053	378.54
516.412	396.41
516.771	427.05
517.129	421.95
517.488	347.9
517.847	391.31
518.205	447.48
518.564	437.27
518.922	398.97
519.281	513.87
519.639	475.57
519.998	442.37
520.356	442.37
520.714	467.91
521.073	398.97
521.431	404.07
521.789	460.25
522.147	465.35
522.505	432.16
522.863	447.48
523.221	429.61
523.579	457.69
523.937	414.29
524.295	455.14
524.652	427.05
525.01	416.84
525.368	391.31
525.725	419.39
526.083	398.97
526.44	452.59
526.798	386.2
527.155	460.25
527.513	467.91
527.87	457.69
528.227	434.71
528.584	457.69
528.942	396.41
529.299	401.52
529.656	483.23
530.013	460.25
530.37	462.8
530.727	473.01
531.083	398.97
531.44	429.61
531.797	488.33
532.154	419.39
532.511	414.29
532.867	437.27
533.224	381.09
533.58	421.95
533.937	421.95
534.293	414.29
534.65	421.95
535.006	465.35
535.362	490.89
535.718	455.14
536.075	480.67
536.431	414.29
536.787	444.93
537.143	370.88
537.499	439.82
537.855	350.45
538.211	485.78
538.567	424.5
538.923	424.5
539.278	447.48
539.634	358.11
539.99	342.79
540.345	460.25
540.701	414.29
541.056	447.48
541.412	442.37
541.767	429.61
542.123	391.31
542.478	434.71
542.833	452.59
543.188	480.67
543.544	473.01
543.899	490.89
544.254	450.03
544.609	424.5
544.964	447.48
545.319	429.61
545.674	421.95
546.029	421.95
546.383	419.39
546.738	462.8
547.093	478.12
547.447	388.75
547.802	414.29
548.157	381.09
548.511	490.89
548.866	396.41
549.22	488.33
549.574	419.39
549.929	439.82
550.283	473.01
550.637	447.48
550.991	416.84
551.345	401.52
551.699	406.63
552.053	414.29
552.407	442.37
552.761	421.95
553.115	455.14
553.469	442.37
553.823	409.18
554.176	373.43
554.53	393.86
554.884	388.75
555.237	536.85
555.591	503.65
555.944	450.03
556.298	465.35
556.651	467.91
557.005	490.89
557.358	455.14
557.711	421.95
558.064	450.03
558.417	493.44
558.771	575.15
559.124	393.86
559.477	404.07
559.83	365.77
560.182	444.93
560.535	429.61
560.888	495.99
561.241	444.93
561.594	457.69
561.946	455.14
562.299	411.73
562.651	434.71
563.004	465.35
563.356	391.31
563.709	404.07
564.061	434.71
564.413	419.39
564.766	383.65
565.118	404.07
565.47	460.25
565.822	404.07
566.174	381.09
566.526	444.93
566.878	429.61
567.23	432.16
567.582	450.03
567.934	516.42
568.286	480.67
568.638	488.33
568.989	465.35
569.341	452.59
569.693	373.43
570.044	442.37
570.396	478.12
570.747	455.14
571.098	434.71
571.45	424.5
571.801	383.65
572.152	488.33
572.504	414.29
572.855	444.93
573.206	444.93
573.557	465.35
573.908	483.23
574.259	439.82
574.61	439.82
574.961	465.35
575.311	501.1
575.662	419.39
576.013	365.77
576.364	381.09
576.714	444.93
577.065	447.48
577.415	406.63
577.766	452.59
578.116	470.46
578.467	506.21
578.817	432.16
579.167	447.48
579.518	404.07
579.868	406.63
580.218	424.5
580.568	414.29
580.918	396.41
581.268	455.14
581.618	483.23
581.968	398.97
582.318	378.54
582.668	442.37
583.017	444.93
583.367	475.57
583.717	447.48
584.066	386.2
584.416	501.1
584.765	424.5
585.115	388.75
585.464	411.73
585.814	411.73
586.163	478.12
586.512	444.93
586.862	391.31
587.211	424.5
587.56	460.25
587.909	437.27
588.258	465.35
588.607	465.35
588.956	475.57
589.305	452.59
589.654	421.95
590.002	388.75
590.351	414.29
590.7	450.03
591.048	409.18
591.397	511.31
591.746	457.69
592.094	398.97
592.443	437.27
592.791	401.52
593.139	396.41
593.488	411.73
593.836	330.02
594.184	452.59
594.532	414.29
594.88	437.27
595.228	419.39
595.576	378.54
595.924	465.35
596.272	358.11
596.62	427.05
596.968	411.73
597.316	442.37
597.664	439.82
598.011	401.52
598.359	478.12
598.706	444.93
599.054	419.39
599.402	381.09
599.749	434.71
600.096	452.59
600.444	429.61
600.791	411.73
601.138	439.82
601.485	444.93
601.833	419.39
602.18	432.16
602.527	388.75
602.874	375.98
603.221	419.39
603.568	406.63
603.914	444.93
604.261	432.16
604.608	411.73
604.955	386.2
605.301	381.09
605.648	424.5
605.995	450.03
606.341	358.11
606.688	457.69
607.034	419.39
607.38	342.79
607.727	416.84
608.073	406.63
608.419	370.88
608.765	396.41
609.112	419.39
609.458	478.12
609.804	437.27
610.15	450.03
610.496	381.09
610.842	365.77
611.187	462.8
611.533	457.69
611.879	416.84
612.225	409.18
612.57	467.91
612.916	434.71
613.261	381.09
613.607	483.23
613.952	427.05
614.298	406.63
614.643	353
614.989	409.18
615.334	373.43
615.679	391.31
616.024	381.09
616.369	414.29
616.714	401.52
617.059	409.18
617.404	373.43
617.749	414.29
618.094	439.82
618.439	414.29
618.784	427.05
619.129	429.61
619.473	342.79
619.818	375.98
620.163	373.43
620.507	416.84
620.852	467.91
621.196	409.18
621.54	478.12
621.885	398.97
622.229	432.16
622.573	493.44
622.918	427.05
623.262	432.16
623.606	406.63
623.95	475.57
624.294	444.93
624.638	427.05
624.982	465.35
625.326	432.16
625.67	465.35
626.013	465.35
626.357	396.41
626.701	373.43
627.044	393.86
627.388	393.86
627.731	470.46
628.075	427.05
628.418	414.29
628.762	378.54
629.105	404.07
629.448	360.66
629.792	467.91
630.135	409.18
630.478	442.37
630.821	424.5
631.164	419.39
631.507	427.05
631.85	421.95
632.193	434.71
632.536	393.86
632.879	381.09
633.221	386.2
633.564	414.29
633.907	450.03
634.249	404.07
634.592	414.29
634.935	437.27
635.277	480.67
635.619	396.41
635.962	444.93
636.304	414.29
636.646	488.33
636.989	452.59
637.331	391.31
637.673	368.32
638.015	383.65
638.357	396.41
638.699	383.65
639.041	378.54
639.383	360.66
639.725	388.75
640.067	447.48
640.408	434.71
640.75	416.84
641.092	393.86
641.433	447.48
641.775	416.84
642.116	465.35
642.458	493.44
642.799	460.25
643.141	437.27
643.482	406.63
643.823	511.31
644.164	424.5
644.506	503.65
644.847	411.73
645.188	350.45
645.529	401.52
645.87	419.39
646.211	378.54
646.552	378.54
646.893	429.61
647.233	429.61
647.574	432.16
647.915	401.52
648.255	381.09
648.596	416.84
648.937	447.48
649.277	363.22
649.618	404.07
649.958	460.25
650.298	411.73
650.639	457.69
650.979	429.61
651.319	404.07
651.659	345.34
651.999	460.25
652.339	437.27
652.679	483.23
653.019	404.07
653.359	375.98
653.699	416.84
654.039	406.63
654.379	393.86
654.719	444.93
655.058	427.05
655.398	437.27
655.737	457.69
656.077	450.03
656.416	429.61
656.756	411.73
657.095	386.2
657.435	391.31
657.774	370.88
658.113	355.56
658.452	404.07
658.792	432.16
659.131	353
659.47	404.07
659.809	396.41
660.148	450.03
660.487	378.54
660.826	393.86
661.164	419.39
661.503	365.77
661.842	406.63
662.181	416.84
662.519	404.07
662.858	447.48
663.196	437.27
663.535	381.09
663.873	370.88
664.212	378.54
664.55	381.09
664.888	478.12
665.226	455.14
665.565	404.07
665.903	575.15
666.241	434.71
666.579	488.33
666.917	444.93
667.255	450.03
667.593	358.11
667.931	439.82
668.268	386.2
668.606	393.86
668.944	401.52
669.282	386.2
669.619	381.09
669.957	478.12
670.294	414.29
670.632	475.57
670.969	442.37
671.307	398.97
671.644	350.45
671.981	434.71
672.318	409.18
672.656	388.75
672.993	360.66
673.33	419.39
673.667	404.07
674.004	427.05
674.341	442.37
674.678	450.03
675.015	432.16
675.351	378.54
675.688	401.52
676.025	409.18
676.362	457.69
676.698	332.58
677.035	401.52
677.371	378.54
677.708	386.2
678.044	360.66
678.38	429.61
678.717	439.82
679.053	391.31
679.389	391.31
679.725	404.07
680.062	386.2
680.398	411.73
680.734	434.71
681.07	409.18
681.406	368.32
681.742	416.84
682.077	419.39
682.413	419.39
682.749	406.63
683.085	437.27
683.42	345.34
683.756	462.8
684.091	391.31
684.427	365.77
684.762	381.09
685.098	324.92
685.433	404.07
685.768	363.22
686.104	370.88
686.439	342.79
686.774	375.98
687.109	460.25
687.444	378.54
687.779	404.07
688.114	383.65
688.449	411.73
688.784	427.05
689.119	406.63
689.454	404.07
689.789	383.65
690.123	404.07
690.458	432.16
690.792	462.8
691.127	409.18
691.461	378.54
691.796	414.29
692.13	434.71
692.465	358.11
692.799	386.2
693.133	432.16
693.467	368.32
693.802	444.93
694.136	416.84
694.47	406.63
694.804	429.61
695.138	427.05
695.472	388.75
695.806	406.63
696.139	396.41
696.473	427.05
696.807	421.95
697.141	447.48
697.474	467.91
697.808	462.8
698.141	452.59
698.475	388.75
698.808	375.98
699.142	411.73
699.475	378.54
699.808	404.07
700.142	375.98
700.475	432.16
700.808	373.43
701.141	467.91
701.474	439.82
701.807	421.95
702.14	388.75
702.473	404.07
702.806	411.73
703.139	462.8
703.472	434.71
703.804	401.52
704.137	419.39
704.47	393.86
704.802	424.5
705.135	444.93
705.467	419.39
705.8	432.16
706.132	429.61
706.464	424.5
706.797	363.22
707.129	427.05
707.461	450.03
707.793	406.63
708.125	363.22
708.457	465.35
708.789	427.05
709.121	411.73
709.453	411.73
709.785	429.61
710.117	363.22
710.449	427.05
710.781	404.07
711.112	404.07
711.444	416.84
711.775	393.86
712.107	493.44
712.438	409.18
712.77	388.75
713.101	401.52
713.433	429.61
713.764	409.18
714.095	401.52
714.426	421.95
714.757	398.97
715.089	478.12
715.42	457.69
715.751	347.9
716.082	424.5
716.412	411.73
716.743	421.95
717.074	370.88
717.405	370.88
717.736	429.61
718.066	398.97
718.397	393.86
718.727	373.43
719.058	434.71
719.388	442.37
719.719	391.31
720.049	450.03
720.38	455.14
720.71	414.29
721.04	444.93
721.37	485.78
721.7	406.63
722.031	455.14
722.361	470.46
722.691	409.18
723.021	404.07
723.35	467.91
723.68	490.89
724.01	396.41
724.34	370.88
724.67	444.93
724.999	427.05
725.329	478.12
725.658	432.16
725.988	419.39
726.317	419.39
726.647	483.23
726.976	462.8
727.306	409.18
727.635	473.01
727.964	381.09
728.293	439.82
728.622	342.79
728.952	396.41
729.281	373.43
729.61	429.61
729.939	442.37
730.267	444.93
730.596	411.73
730.925	424.5
731.254	406.63
731.583	388.75
731.911	429.61
732.24	444.93
732.568	409.18
732.897	391.31
733.225	493.44
733.554	462.8
733.882	444.93
734.21	396.41
734.539	393.86
734.867	424.5
735.195	414.29
735.523	363.22
735.851	360.66
736.179	409.18
736.507	439.82
736.835	409.18
737.163	409.18
737.491	393.86
737.819	396.41
738.147	370.88
738.474	406.63
738.802	467.91
739.13	347.9
739.457	427.05
739.785	465.35
740.112	406.63
740.44	391.31
740.767	375.98
741.094	411.73
741.422	470.46
741.749	473.01
742.076	414.29
742.403	406.63
742.73	383.65
743.057	442.37
743.384	388.75
743.711	409.18
744.038	406.63
744.365	424.5
744.692	358.11
745.018	401.52
745.345	437.27
745.672	396.41
745.998	414.29
746.325	375.98
746.651	414.29
746.978	386.2
747.304	473.01
747.631	409.18
747.957	396.41
748.283	409.18
748.61	375.98
748.936	439.82
749.262	381.09
749.588	401.52
749.914	421.95
750.24	401.52
750.566	442.37
750.892	378.54
751.218	429.61
751.543	429.61
751.869	455.14
752.195	388.75
752.521	447.48
752.846	442.37
753.172	411.73
753.497	485.78
753.823	467.91
754.148	457.69
754.473	419.39
754.799	470.46
755.124	414.29
755.449	406.63
755.774	432.16
756.1	421.95
756.425	406.63
756.75	409.18
757.075	427.05
757.4	495.99
757.724	475.57
758.049	396.41
758.374	416.84
758.699	406.63
759.024	419.39
759.348	424.5
759.673	442.37
759.997	421.95
760.322	416.84
760.646	437.27
760.971	327.47
761.295	368.32
761.619	429.61
761.944	411.73
762.268	488.33
762.592	432.16
762.916	457.69
763.24	421.95
763.564	383.65
763.888	324.92
764.212	398.97
764.536	386.2
764.86	368.32
765.184	485.78
765.508	416.84
765.831	365.77
766.155	595.58
766.478	478.12
766.802	439.82
767.126	427.05
767.449	457.69
767.772	480.67
768.096	457.69
768.419	462.8
768.742	473.01
769.066	488.33
769.389	432.16
769.712	437.27
770.035	470.46
770.358	450.03
770.681	524.08
771.004	485.78
771.327	467.91
771.65	467.91
771.972	503.65
772.295	450.03
772.618	495.99
772.941	473.01
773.263	493.44
773.586	536.85
773.908	544.51
774.231	603.24
774.553	659.41
774.875	679.84
775.198	822.83
775.52	889.21
775.842	866.23
776.164	904.53
776.487	822.83
776.809	838.15
777.131	861.13
777.453	886.66
777.775	950.49
778.096	1062.84
778.418	1177.75
778.74	1318.18
779.062	1657.78
779.384	2015.25
779.705	2377.83
780.027	2518.27
780.348	2694.45
780.67	2610.19
780.991	2538.7
781.313	2612.74
781.634	2630.62
781.955	2842.55
782.277	3309.82
782.598	3830.71
782.919	4165.2
783.24	4428.2
783.561	4341.38
783.882	4262.23
784.203	4170.3
784.524	4236.69
784.845	4040.08
785.166	4318.4
785.487	5046.11
785.807	5684.46
786.128	6013.84
786.449	7175.63
786.769	8204.64
787.09	8255.71
787.41	8518.71
787.731	8842.99
788.051	8666.8
788.372	8237.84
788.692	7911
789.012	8306.78
789.332	8368.06
789.653	9233.65
789.973	10571.62
790.293	12205.79
790.613	13691.85
790.933	13758.24
791.253	13638.23
791.573	13556.52
791.893	13015.21
792.212	12001.51
792.532	11299.34
792.852	10403.1
793.171	10025.2
793.491	9672.83
793.811	10094.14
794.13	10571.62
794.45	12481.55
794.769	14963.43
795.088	18336.45
795.408	19825.07
795.727	21119.63
796.046	20236.16
796.365	20093.17
796.684	20213.18
797.004	20874.5
797.323	21017.49
797.642	21173.25
797.96	21270.28
798.279	20271.91
798.598	19153.53
798.917	20200.41
799.236	21875.43
799.554	24507.96
799.873	26599.18
800.192	29344.06
800.51	31680.4
800.829	31042.05
801.147	29681.1
801.466	28705.71
801.784	26451.08
802.102	21855
802.421	21740.1
802.739	23004.02
803.057	23323.19
803.375	23621.94
803.693	26497.04
804.011	32224.27
804.329	36942.91
804.647	40706.59
804.965	44324.73
805.283	45854.2
805.601	44079.6
805.918	41761.14
806.236	38684.32
806.554	37823.83
806.871	35931.77
807.189	34289.95
807.507	31711.04
807.824	29441.09
808.141	30166.25
808.459	31547.62
808.776	32183.41
809.093	32768.14
809.411	35099.37
809.728	36166.68
810.045	37696.16
810.362	36153.92
810.679	36294.35
810.996	35564.09
811.313	34718.92
811.63	34024.4
811.947	31552.73
812.264	28179.72
812.58	25072.26
812.897	24313.9
813.214	23762.37
813.53	23307.87
813.847	24740.32
814.163	27069
814.48	29854.73
814.796	34787.86
815.113	35209.17
815.429	33700.12
815.745	31713.59
816.061	28549.96
816.378	23387.03
816.694	21066.01
817.01	19661.65
817.326	19332.26
817.642	18252.18
817.958	16865.7
818.274	15034.93
818.59	14087.62
818.905	12274.73
819.221	11437.22
819.537	11010.8
819.852	11421.9
820.168	11940.23
820.484	12892.64
820.799	13066.27
821.115	12157.27
821.43	11955.55
821.745	11396.36
822.061	10035.41
822.376	9264.29
822.691	7982.5
823.006	7185.84
823.322	6585.8
823.637	6537.29
823.952	6095.55
824.267	5602.75
824.582	5240.17
824.897	5043.56
825.211	5099.73
825.526	5298.9
825.841	5577.22
826.156	5722.76
826.47	6024.06
826.785	5178.89
827.1	4568.63
827.414	3869.01
827.729	3447.7
828.043	2960
828.357	2628.06
828.672	2390.6
828.986	2260.38
829.3	2063.77
829.614	2102.07
829.929	2058.66
830.243	2137.82
830.557	2298.68
830.871	2296.13
831.185	2449.33
831.499	2599.98
831.812	2732.75
832.126	2485.08
832.44	2444.22
832.754	2199.1
833.067	1915.67
833.381	1650.12
833.695	1476.49
834.008	1200.73
834.322	1037.31
834.635	940.28
834.948	807.51
835.262	746.22
835.575	695.16
835.888	684.94
836.201	733.46
836.515	728.35
836.828	799.85
837.141	845.81
837.454	779.42
837.767	784.53
838.08	787.08
838.392	746.22
838.705	702.82
839.018	623.66
839.331	636.43
839.643	646.64
839.956	616
840.269	534.29
840.581	513.87
840.894	465.35
841.206	506.21
841.519	541.95
841.831	490.89
842.143	439.82
842.455	506.21
842.768	485.78
843.08	483.23
843.392	529.19
843.704	488.33
844.016	475.57
844.328	475.57
844.64	439.82
844.952	442.37
845.263	498.55
845.575	465.35
845.887	404.07
846.199	457.69
846.51	429.61
846.822	416.84
847.133	383.65
847.445	414.29
847.756	473.01
848.068	513.87
848.379	437.27
848.69	439.82
849.002	511.31
849.313	409.18
849.624	368.32
849.935	427.05
850.246	447.48
850.557	345.34
850.868	401.52
851.179	375.98
851.49	401.52
851.801	401.52
852.112	406.63
852.422	388.75
852.733	391.31
853.044	393.86
853.354	419.39
853.665	427.05
853.975	375.98
854.286	398.97
854.596	347.9
854.906	421.95
855.217	386.2
855.527	437.27
855.837	416.84
856.147	370.88
856.458	353
856.768	421.95
857.078	370.88
857.388	421.95
857.698	388.75
858.007	424.5
858.317	429.61
858.627	414.29
858.937	373.43
859.246	416.84
859.556	455.14
859.866	386.2
860.175	434.71
860.485	398.97
860.794	416.84
861.104	424.5
861.413	370.88
861.722	368.32
862.032	381.09
862.341	462.8
862.65	460.25
862.959	409.18
863.268	416.84
863.577	429.61
863.886	393.86
864.195	442.37
864.504	375.98
864.813	381.09
865.122	416.84
865.43	378.54
865.739	383.65
866.048	391.31
866.356	373.43
866.665	447.48
866.973	396.41
867.282	398.97
867.59	383.65
867.899	393.86
868.207	375.98
868.515	391.31
868.823	391.31
869.132	444.93
869.44	424.5
869.748	416.84
870.056	409.18
870.364	353
870.672	327.47
870.98	347.9
871.288	370.88
871.595	381.09
871.903	368.32
872.211	370.88
872.518	360.66
872.826	409.18
873.134	439.82
873.441	427.05
873.749	388.75
874.056	378.54
874.363	427.05
874.671	396.41
874.978	370.88
875.285	391.31
875.592	391.31
875.9	355.56
876.207	370.88
876.514	419.39
876.821	358.11
877.128	383.65
877.435	411.73
877.741	383.65
878.048	401.52
878.355	406.63
878.662	404.07
878.968	485.78
879.275	444.93
879.582	424.5
879.888	406.63
880.195	388.75
880.501	332.58
880.807	424.5
881.114	404.07
881.42	421.95
881.726	437.27
882.032	368.32
882.339	409.18
882.645	419.39
882.951	373.43
883.257	396.41
883.563	401.52
883.869	442.37
884.174	345.34
884.48	429.61
884.786	401.52
885.092	409.18
885.397	404.07
885.703	350.45
886.009	416.84
886.314	353
886.62	386.2
886.925	439.82
887.231	363.22
887.536	467.91
887.841	347.9
888.146	381.09
888.452	396.41
888.757	409.18
889.062	447.48
889.367	391.31
889.672	439.82
889.977	411.73
890.282	345.34
890.587	401.52
890.892	353
891.196	375.98
891.501	414.29
891.806	411.73
892.11	388.75
892.415	353
892.72	350.45
893.024	404.07
893.328	490.89
893.633	432.16
893.937	424.5
894.242	393.86
894.546	424.5
894.85	421.95
895.154	393.86
895.458	424.5
895.762	419.39
896.066	398.97
896.37	444.93
896.674	398.97
896.978	358.11
897.282	375.98
897.586	411.73
897.89	383.65
898.193	411.73
898.497	401.52
898.801	411.73
899.104	353
899.408	444.93
899.711	388.75
900.014	429.61
900.318	414.29
900.621	424.5
900.924	378.54
901.228	381.09
901.531	381.09
901.834	434.71
902.137	383.65
902.44	355.56
902.743	347.9
903.046	404.07
903.349	393.86
903.652	404.07
903.955	457.69
904.257	345.34
904.56	337.68
904.863	398.97
905.165	383.65
905.468	421.95
905.77	391.31
906.073	452.59
906.375	416.84
906.678	368.32
906.98	404.07
907.282	347.9
907.584	373.43
907.887	442.37
908.189	370.88
908.491	409.18
908.793	340.24
909.095	419.39
909.397	398.97
909.699	424.5
910.001	365.77
910.302	388.75
910.604	416.84
910.906	355.56
911.208	429.61
911.509	340.24
911.811	365.77
912.112	406.63
912.414	416.84
912.715	421.95
913.017	439.82
913.318	355.56
913.619	452.59
913.92	391.31
914.222	398.97
914.523	381.09
914.824	457.69
915.125	409.18
915.426	414.29
915.727	396.41
916.028	363.22
916.329	411.73
916.63	330.02
916.93	444.93
917.231	355.56
917.532	383.65
917.832	363.22
918.133	429.61
918.434	424.5
918.734	381.09
919.034	347.9
919.335	419.39
919.635	411.73
919.935	434.71
920.236	424.5
920.536	406.63
920.836	411.73
921.136	342.79
921.436	429.61
921.736	414.29
922.036	391.31
922.336	414.29
922.636	388.75
922.936	391.31
923.236	419.39
923.535	465.35
923.835	409.18
924.135	442.37
924.434	363.22
924.734	381.09
925.033	393.86
925.333	411.73
925.632	393.86
925.932	470.46
926.231	455.14
926.53	398.97
926.83	398.97
927.129	378.54
927.428	391.31
927.727	404.07
928.026	411.73
928.325	370.88
928.624	340.24
928.923	419.39
929.222	419.39
929.52	404.07
929.819	450.03
930.118	409.18
930.417	467.91
930.715	345.34
931.014	465.35
931.312	478.12
931.611	381.09
931.909	370.88
932.207	421.95
932.506	409.18
932.804	421.95
933.102	419.39
933.401	363.22
933.699	439.82
933.997	386.2
934.295	398.97
934.593	314.7
934.891	353
935.189	401.52
935.487	365.77
935.784	375.98
936.082	391.31
936.38	383.65
936.677	383.65
936.975	386.2
937.273	340.24
937.57	337.68
937.868	353
938.165	439.82
938.463	421.95
938.76	388.75
939.057	365.77
939.354	332.58
939.652	375.98
939.949	409.18
940.246	375.98
940.543	370.88
940.84	378.54
941.137	411.73
941.434	416.84
941.731	467.91
942.028	353
942.324	375.98
942.621	434.71
942.918	437.27
943.214	457.69
943.511	388.75
943.807	360.66
944.104	378.54
944.4	345.34
944.697	406.63
944.993	355.56
945.29	358.11
945.586	442.37
945.882	360.66
946.178	391.31
946.474	350.45
946.77	416.84
947.066	388.75
947.362	373.43
947.658	368.32
947.954	388.75
948.25	442.37
948.546	432.16
948.842	414.29
949.137	386.2
949.433	345.34
949.729	301.94
950.024	337.68
950.32	439.82
950.615	462.8
950.91	432.16
951.206	327.47
951.501	340.24
951.796	473.01
952.092	286.62
952.387	439.82
952.682	365.77
952.977	424.5
953.272	419.39
953.567	416.84
953.862	401.52
954.157	432.16
954.452	455.14
954.747	381.09
955.041	406.63
955.336	398.97
955.631	388.75
955.925	429.61
956.22	465.35
956.514	360.66
956.809	370.88
957.103	421.95
957.398	396.41
957.692	434.71
957.986	414.29
958.281	495.99
958.575	373.43
958.869	406.63
959.163	307.04
959.457	398.97
959.751	455.14
960.045	393.86
960.339	401.52
960.633	355.56
960.927	447.48
961.221	383.65
961.514	398.97
961.808	450.03
962.102	355.56
962.395	370.88
962.689	347.9
962.982	416.84
963.276	386.2
963.569	442.37
963.862	378.54
964.156	391.31
964.449	432.16
964.742	375.98
965.035	353
965.328	396.41
965.622	419.39
965.915	450.03
966.208	478.12
966.5	388.75
966.793	406.63
967.086	427.05
967.379	416.84
967.672	411.73
967.964	330.02
968.257	360.66
968.55	375.98
968.842	406.63
969.135	383.65
969.427	444.93
969.72	388.75
970.012	345.34
970.304	442.37
970.597	429.61
970.889	383.65
971.181	411.73
971.473	432.16
971.765	388.75
972.057	442.37
972.349	368.32
972.641	363.22
972.933	424.5
973.225	432.16
973.517	424.5
973.809	391.31
974.1	358.11
974.392	327.47
974.684	347.9
974.975	409.18
975.267	358.11
975.558	309.6
975.85	335.13
976.141	381.09
976.432	437.27
976.724	391.31
977.015	363.22
977.306	345.34
977.597	373.43
977.888	314.7
978.179	378.54
978.47	393.86
978.761	427.05
979.052	327.47
979.343	411.73
979.634	396.41
979.925	383.65
980.215	370.88
980.506	345.34
980.797	317.26
981.087	345.34
981.378	383.65
981.668	383.65
981.959	386.2
982.249	411.73
982.54	396.41
982.83	419.39
983.12	358.11
983.41	370.88
983.701	373.43
983.991	350.45
984.281	386.2
984.571	442.37
984.861	353
985.151	373.43
985.441	363.22
985.73	442.37
986.02	414.29
986.31	317.26
986.6	424.5
986.889	475.57
987.179	388.75
987.469	358.11
987.758	488.33
988.048	409.18
988.337	404.07
988.626	381.09
988.916	406.63
989.205	370.88
989.494	416.84
989.783	388.75
990.073	398.97
990.362	335.13
990.651	409.18
990.94	370.88
991.229	350.45
991.518	406.63
991.806	401.52
992.095	401.52
992.384	434.71
992.673	409.18
992.961	411.73
993.25	393.86
993.539	434.71
993.827	378.54
994.116	406.63
994.404	404.07
994.692	327.47
994.981	388.75
995.269	442.37
995.557	462.8
995.846	409.18
996.134	411.73
996.422	396.41
996.71	363.22
996.998	424.5
997.286	396.41
997.574	419.39
997.862	421.95
998.15	393.86
998.437	383.65
998.725	396.41
999.013	345.34
999.3	434.71
999.588	393.86
999.876	307.04
1000.163	386.2
1000.45	437.27
1000.738	424.5
1001.025	404.07
1001.313	421.95
1001.6	360.66
1001.887	447.48
1002.174	373.43
1002.461	363.22
1002.748	398.97
1003.036	368.32
1003.322	319.81
1003.609	404.07
1003.896	460.25
1004.183	391.31
1004.47	365.77
1004.757	327.47
1005.043	409.18
1005.33	386.2
1005.617	353
1005.903	416.84
1006.19	391.31
1006.476	304.49
1006.763	396.41
1007.049	368.32
1007.335	386.2
1007.622	327.47
1007.908	360.66
1008.194	345.34
1008.48	421.95
1008.766	391.31
1009.053	391.31
1009.339	398.97
1009.625	360.66
1009.91	419.39
1010.196	383.65
1010.482	414.29
1010.768	375.98
1011.054	383.65
1011.339	386.2
1011.625	434.71
1011.911	429.61
1012.196	432.16
1012.482	337.68
1012.767	416.84
1013.052	373.43
1013.338	355.56
1013.623	363.22
1013.908	360.66
1014.194	324.92
1014.479	424.5
1014.764	437.27
1015.049	434.71
1015.334	419.39
1015.619	355.56
1015.904	373.43
1016.189	335.13
1016.474	317.26
1016.758	381.09
1017.043	370.88
1017.328	342.79
1017.613	386.2
1017.897	365.77
1018.182	358.11
1018.466	347.9
1018.751	409.18
1019.035	350.45
1019.32	421.95
1019.604	360.66
1019.888	365.77
1020.172	365.77
1020.457	365.77
