Data from 2025-11-25_spectrum_w_ND_FLMS141361__4__15-33-06-750.txt Node

Date: Tue Nov 25 15:33:06 MST 2025
User: james
Spectrometer: FLMS14136
Trigger mode: 0
Integration Time (sec): 1.000000E-1
Scans to average: 1
Electric dark correction enabled: true
Nonlinearity correction enabled: false
Boxcar width: 0
XAxis mode: Wavelengths
Number of Pixels in Spectrum: 2048
>>>>>Begin Spectral Data<<<<<
339.315	-0.64
339.697	-0.64
340.079	-0.64
340.461	-97.67
340.843	-72.13
341.225	-69.58
341.607	-123.2
341.989	-79.79
342.371	-97.67
342.752	-64.47
343.134	-56.81
343.516	-38.94
343.897	-15.96
344.279	4.47
344.661	-44.05
345.042	55.54
345.423	65.75
345.805	91.28
346.186	106.6
346.567	119.37
346.949	147.46
347.33	178.1
347.711	190.87
348.092	198.53
348.473	221.51
348.854	275.13
349.235	183.2
349.616	201.08
349.997	285.34
350.378	313.43
350.758	359.39
351.139	349.17
351.52	308.32
351.9	298.11
352.281	364.49
352.661	321.09
353.042	438.54
353.422	361.94
353.803	474.29
354.183	471.74
354.563	382.37
354.943	364.49
355.324	387.48
355.704	413.01
356.084	402.8
356.464	392.58
356.844	487.06
357.224	410.46
357.603	397.69
357.983	443.65
358.363	392.58
358.743	359.39
359.122	407.9
359.502	384.92
359.882	387.48
360.261	361.94
360.641	367.05
361.02	390.03
361.399	395.14
361.779	364.49
362.158	310.87
362.537	405.35
362.916	382.37
363.296	354.28
363.675	333.85
364.054	300.66
364.433	272.57
364.812	367.05
365.19	354.28
365.569	298.11
365.948	305.77
366.327	333.85
366.705	328.75
367.084	405.35
367.463	356.83
367.841	344.07
368.22	425.78
368.598	326.19
368.977	308.32
369.355	384.92
369.733	364.49
370.111	328.75
370.49	349.17
370.868	341.51
371.246	333.85
371.624	374.71
372.002	392.58
372.38	321.09
372.758	351.73
373.136	359.39
373.513	344.07
373.891	367.05
374.269	361.94
374.646	331.3
375.024	372.15
375.402	369.6
375.779	390.03
376.157	367.05
376.534	280.23
376.911	321.09
377.289	438.54
377.666	361.94
378.043	410.46
378.42	361.94
378.797	305.77
379.175	374.71
379.552	387.48
379.929	377.26
380.305	372.15
380.682	364.49
381.059	323.64
381.436	349.17
381.813	313.43
382.189	315.98
382.566	328.75
382.943	405.35
383.319	346.62
383.696	369.6
384.072	359.39
384.448	356.83
384.825	349.17
385.201	390.03
385.577	361.94
385.953	331.3
386.329	400.24
386.706	356.83
387.082	407.9
387.458	377.26
387.834	407.9
388.209	382.37
388.585	395.14
388.961	410.46
389.337	308.32
389.713	298.11
390.088	331.3
390.464	390.03
390.839	382.37
391.215	423.22
391.59	310.87
391.966	402.8
392.341	367.05
392.716	331.3
393.092	351.73
393.467	310.87
393.842	356.83
394.217	390.03
394.592	382.37
394.967	367.05
395.342	367.05
395.717	364.49
396.092	310.87
396.467	407.9
396.841	379.81
397.216	364.49
397.591	338.96
397.965	336.41
398.34	451.31
398.714	372.15
399.089	369.6
399.463	423.22
399.838	390.03
400.212	331.3
400.586	377.26
400.961	372.15
401.335	382.37
401.709	326.19
402.083	387.48
402.457	390.03
402.831	351.73
403.205	372.15
403.579	374.71
403.953	395.14
404.326	397.69
404.7	351.73
405.074	387.48
405.447	405.35
405.821	435.99
406.195	344.07
406.568	346.62
406.942	430.88
407.315	395.14
407.688	410.46
408.062	359.39
408.435	287.89
408.808	326.19
409.181	420.67
409.554	413.01
409.927	331.3
410.3	367.05
410.673	359.39
411.046	377.26
411.419	387.48
411.792	448.76
412.165	435.99
412.537	397.69
412.91	344.07
413.283	400.24
413.655	318.53
414.028	333.85
414.4	369.6
414.773	379.81
415.145	438.54
415.517	392.58
415.889	435.99
416.262	433.44
416.634	356.83
417.006	364.49
417.378	392.58
417.75	338.96
418.122	448.76
418.494	446.2
418.866	400.24
419.238	336.41
419.609	433.44
419.981	446.2
420.353	420.67
420.725	392.58
421.096	359.39
421.468	397.69
421.839	435.99
422.211	453.86
422.582	392.58
422.953	392.58
423.325	359.39
423.696	349.17
424.067	305.77
424.438	387.48
424.809	367.05
425.18	402.8
425.551	351.73
425.922	364.49
426.293	379.81
426.664	374.71
427.035	464.08
427.406	464.08
427.776	395.14
428.147	479.4
428.518	395.14
428.888	433.44
429.259	469.18
429.629	415.56
429.999	405.35
430.37	390.03
430.74	397.69
431.11	456.42
431.481	410.46
431.851	410.46
432.221	356.83
432.591	364.49
432.961	466.63
433.331	356.83
433.701	356.83
434.071	349.17
434.441	369.6
434.81	344.07
435.18	384.92
435.55	359.39
435.919	423.22
436.289	397.69
436.658	323.64
437.028	405.35
437.397	413.01
437.767	402.8
438.136	415.56
438.505	425.78
438.875	410.46
439.244	453.86
439.613	351.73
439.982	456.42
440.351	390.03
440.72	397.69
441.089	407.9
441.458	382.37
441.827	410.46
442.196	397.69
442.564	466.63
442.933	471.74
443.302	407.9
443.67	402.8
444.039	446.2
444.407	379.81
444.776	428.33
445.144	395.14
445.513	377.26
445.881	405.35
446.249	402.8
446.617	384.92
446.986	430.88
447.354	435.99
447.722	405.35
448.09	326.19
448.458	379.81
448.826	397.69
449.194	410.46
449.561	400.24
449.929	374.71
450.297	413.01
450.665	405.35
451.032	402.8
451.4	443.65
451.767	425.78
452.135	397.69
452.502	395.14
452.87	438.54
453.237	372.15
453.604	425.78
453.971	420.67
454.339	415.56
454.706	410.46
455.073	418.12
455.44	344.07
455.807	361.94
456.174	425.78
456.541	438.54
456.908	441.1
457.274	333.85
457.641	351.73
458.008	471.74
458.374	390.03
458.741	387.48
459.108	384.92
459.474	382.37
459.841	443.65
460.207	367.05
460.573	415.56
460.94	400.24
461.306	407.9
461.672	361.94
462.038	344.07
462.404	435.99
462.771	418.12
463.137	384.92
463.503	413.01
463.868	461.52
464.234	379.81
464.6	359.39
464.966	369.6
465.332	402.8
465.697	377.26
466.063	453.86
466.429	418.12
466.794	367.05
467.16	397.69
467.525	451.31
467.89	458.97
468.256	420.67
468.621	395.14
468.986	328.75
469.351	361.94
469.717	395.14
470.082	428.33
470.447	400.24
470.812	397.69
471.177	351.73
471.542	374.71
471.906	364.49
472.271	428.33
472.636	338.96
473.001	341.51
473.365	379.81
473.73	384.92
474.094	492.16
474.459	407.9
474.823	402.8
475.188	448.76
475.552	415.56
475.917	372.15
476.281	395.14
476.645	418.12
477.009	364.49
477.373	441.1
477.737	361.94
478.101	384.92
478.465	451.31
478.829	359.39
479.193	438.54
479.557	458.97
479.921	328.75
480.284	418.12
480.648	418.12
481.012	405.35
481.375	344.07
481.739	356.83
482.102	410.46
482.466	415.56
482.829	446.2
483.193	384.92
483.556	410.46
483.919	402.8
484.282	390.03
484.645	379.81
485.009	456.42
485.372	356.83
485.735	469.18
486.098	382.37
486.46	382.37
486.823	410.46
487.186	410.46
487.549	435.99
487.912	413.01
488.274	361.94
488.637	382.37
488.999	387.48
489.362	400.24
489.724	453.86
490.087	367.05
490.449	402.8
490.811	390.03
491.174	458.97
491.536	458.97
491.898	374.71
492.26	377.26
492.622	361.94
492.984	456.42
493.346	415.56
493.708	456.42
494.07	487.06
494.432	367.05
494.794	374.71
495.155	471.74
495.517	466.63
495.879	420.67
496.24	410.46
496.602	395.14
496.963	407.9
497.325	410.46
497.686	423.22
498.048	413.01
498.409	400.24
498.77	441.1
499.131	372.15
499.492	448.76
499.854	428.33
500.215	433.44
500.576	458.97
500.937	433.44
501.298	420.67
501.658	446.2
502.019	474.29
502.38	390.03
502.741	423.22
503.101	407.9
503.462	369.6
503.823	428.33
504.183	443.65
504.543	372.15
504.904	425.78
505.264	443.65
505.625	374.71
505.985	326.19
506.345	372.15
506.705	400.24
507.065	341.51
507.426	415.56
507.786	405.35
508.146	382.37
508.505	382.37
508.865	428.33
509.225	400.24
509.585	471.74
509.945	382.37
510.304	392.58
510.664	405.35
511.024	438.54
511.383	423.22
511.743	377.26
512.102	479.4
512.462	359.39
512.821	349.17
513.18	361.94
513.539	405.35
513.899	390.03
514.258	392.58
514.617	428.33
514.976	397.69
515.335	435.99
515.694	428.33
516.053	443.65
516.412	466.63
516.771	410.46
517.129	379.81
517.488	400.24
517.847	428.33
518.205	430.88
518.564	479.4
518.922	438.54
519.281	372.15
519.639	410.46
519.998	423.22
520.356	471.74
520.714	395.14
521.073	418.12
521.431	377.26
521.789	300.66
522.147	372.15
522.505	441.1
522.863	435.99
523.221	364.49
523.579	331.3
523.937	397.69
524.295	423.22
524.652	446.2
525.01	430.88
525.368	418.12
525.725	415.56
526.083	382.37
526.44	425.78
526.798	402.8
527.155	328.75
527.513	405.35
527.87	428.33
528.227	390.03
528.584	448.76
528.942	489.61
529.299	446.2
529.656	476.84
530.013	418.12
530.37	405.35
530.727	425.78
531.083	364.49
531.44	451.31
531.797	420.67
532.154	507.48
532.511	446.2
532.867	415.56
533.224	448.76
533.58	392.58
533.937	379.81
534.293	379.81
534.65	293
535.006	400.24
535.362	361.94
535.718	387.48
536.075	423.22
536.431	420.67
536.787	423.22
537.143	346.62
537.499	379.81
537.855	423.22
538.211	372.15
538.567	453.86
538.923	451.31
539.278	407.9
539.634	438.54
539.99	402.8
540.345	448.76
540.701	448.76
541.056	390.03
541.412	435.99
541.767	387.48
542.123	476.84
542.478	405.35
542.833	392.58
543.188	512.59
543.544	379.81
543.899	441.1
544.254	400.24
544.609	397.69
544.964	418.12
545.319	402.8
545.674	361.94
546.029	438.54
546.383	359.39
546.738	359.39
547.093	377.26
547.447	397.69
547.802	420.67
548.157	372.15
548.511	433.44
548.866	359.39
549.22	359.39
549.574	413.01
549.929	407.9
550.283	402.8
550.637	387.48
550.991	356.83
551.345	387.48
551.699	400.24
552.053	402.8
552.407	435.99
552.761	415.56
553.115	430.88
553.469	458.97
553.823	423.22
554.176	359.39
554.53	359.39
554.884	433.44
555.237	548.34
555.591	453.86
555.944	448.76
556.298	346.62
556.651	372.15
557.005	400.24
557.358	433.44
557.711	415.56
558.064	430.88
558.417	418.12
558.771	545.78
559.124	377.26
559.477	456.42
559.83	418.12
560.182	420.67
560.535	407.9
560.888	400.24
561.241	359.39
561.594	435.99
561.946	433.44
562.299	313.43
562.651	382.37
563.004	336.41
563.356	359.39
563.709	356.83
564.061	410.46
564.413	413.01
564.766	384.92
565.118	418.12
565.47	435.99
565.822	372.15
566.174	418.12
566.526	405.35
566.878	456.42
567.23	390.03
567.582	418.12
567.934	374.71
568.286	390.03
568.638	354.28
568.989	433.44
569.341	410.46
569.693	461.52
570.044	356.83
570.396	374.71
570.747	407.9
571.098	407.9
571.45	397.69
571.801	425.78
572.152	481.95
572.504	400.24
572.855	384.92
573.206	466.63
573.557	364.49
573.908	464.08
574.259	423.22
574.61	456.42
574.961	446.2
575.311	461.52
575.662	402.8
576.013	382.37
576.364	390.03
576.714	466.63
577.065	413.01
577.415	407.9
577.766	418.12
578.116	438.54
578.467	435.99
578.817	413.01
579.167	420.67
579.518	451.31
579.868	456.42
580.218	395.14
580.568	413.01
580.918	428.33
581.268	315.98
581.618	425.78
581.968	395.14
582.318	433.44
582.668	466.63
583.017	400.24
583.367	323.64
583.717	446.2
584.066	443.65
584.416	415.56
584.765	321.09
585.115	405.35
585.464	390.03
585.814	397.69
586.163	400.24
586.512	428.33
586.862	374.71
587.211	407.9
587.56	333.85
587.909	418.12
588.258	461.52
588.607	441.1
588.956	430.88
589.305	425.78
589.654	420.67
590.002	448.76
590.351	433.44
590.7	418.12
591.048	425.78
591.397	361.94
591.746	390.03
592.094	392.58
592.443	435.99
592.791	333.85
593.139	407.9
593.488	387.48
593.836	377.26
594.184	405.35
594.532	430.88
594.88	446.2
595.228	420.67
595.576	390.03
595.924	395.14
596.272	418.12
596.62	456.42
596.968	407.9
597.316	474.29
597.664	435.99
598.011	395.14
598.359	415.56
598.706	410.46
599.054	443.65
599.402	395.14
599.749	425.78
600.096	395.14
600.444	407.9
600.791	356.83
601.138	400.24
601.485	359.39
601.833	441.1
602.18	415.56
602.527	400.24
602.874	438.54
603.221	433.44
603.568	504.93
603.914	446.2
604.261	428.33
604.608	400.24
604.955	397.69
605.301	361.94
605.648	441.1
605.995	313.43
606.341	448.76
606.688	384.92
607.034	423.22
607.38	407.9
607.727	435.99
608.073	369.6
608.419	410.46
608.765	387.48
609.112	384.92
609.458	354.28
609.804	448.76
610.15	402.8
610.496	456.42
610.842	374.71
611.187	441.1
611.533	430.88
611.879	469.18
612.225	338.96
612.57	430.88
612.916	346.62
613.261	361.94
613.607	349.17
613.952	397.69
614.298	407.9
614.643	344.07
614.989	453.86
615.334	453.86
615.679	410.46
616.024	333.85
616.369	420.67
616.714	428.33
617.059	377.26
617.404	372.15
617.749	395.14
618.094	423.22
618.439	410.46
618.784	420.67
619.129	428.33
619.473	410.46
619.818	423.22
620.163	413.01
620.507	392.58
620.852	410.46
621.196	413.01
621.54	341.51
621.885	387.48
622.229	418.12
622.573	428.33
622.918	418.12
623.262	367.05
623.606	405.35
623.95	338.96
624.294	364.49
624.638	318.53
624.982	410.46
625.326	451.31
625.67	418.12
626.013	430.88
626.357	377.26
626.701	387.48
627.044	361.94
627.388	390.03
627.731	458.97
628.075	400.24
628.418	471.74
628.762	402.8
629.105	382.37
629.448	395.14
629.792	418.12
630.135	418.12
630.478	433.44
630.821	423.22
631.164	410.46
631.507	405.35
631.85	349.17
632.193	367.05
632.536	361.94
632.879	397.69
633.221	446.2
633.564	413.01
633.907	466.63
634.249	556
634.592	471.74
634.935	354.28
635.277	351.73
635.619	400.24
635.962	402.8
636.304	397.69
636.646	390.03
636.989	407.9
637.331	387.48
637.673	499.82
638.015	313.43
638.357	418.12
638.699	497.27
639.041	435.99
639.383	379.81
639.725	415.56
640.067	374.71
640.408	374.71
640.75	379.81
641.092	423.22
641.433	420.67
641.775	323.64
642.116	359.39
642.458	372.15
642.799	351.73
643.141	413.01
643.482	446.2
643.823	418.12
644.164	443.65
644.506	418.12
644.847	372.15
645.188	415.56
645.529	410.46
645.87	382.37
646.211	502.38
646.552	423.22
646.893	384.92
647.233	361.94
647.574	443.65
647.915	407.9
648.255	377.26
648.596	395.14
648.937	387.48
649.277	428.33
649.618	390.03
649.958	410.46
650.298	446.2
650.639	400.24
650.979	384.92
651.319	438.54
651.659	372.15
651.999	390.03
652.339	418.12
652.679	415.56
653.019	405.35
653.359	433.44
653.699	377.26
654.039	359.39
654.379	364.49
654.719	410.46
655.058	382.37
655.398	430.88
655.737	489.61
656.077	384.92
656.416	433.44
656.756	402.8
657.095	418.12
657.435	395.14
657.774	461.52
658.113	331.3
658.452	387.48
658.792	400.24
659.131	390.03
659.47	407.9
659.809	453.86
660.148	446.2
660.487	356.83
660.826	489.61
661.164	359.39
661.503	397.69
661.842	456.42
662.181	333.85
662.519	410.46
662.858	346.62
663.196	354.28
663.535	395.14
663.873	420.67
664.212	336.41
664.55	400.24
664.888	354.28
665.226	379.81
665.565	418.12
665.903	563.66
666.241	423.22
666.579	461.52
666.917	413.01
667.255	318.53
667.593	387.48
667.931	423.22
668.268	469.18
668.606	448.76
668.944	423.22
669.282	441.1
669.619	397.69
669.957	364.49
670.294	390.03
670.632	443.65
670.969	407.9
671.307	333.85
671.644	430.88
671.981	367.05
672.318	397.69
672.656	364.49
672.993	466.63
673.33	428.33
673.667	420.67
674.004	374.71
674.341	451.31
674.678	410.46
675.015	364.49
675.351	382.37
675.688	405.35
676.025	464.08
676.362	423.22
676.698	405.35
677.035	423.22
677.371	364.49
677.708	433.44
678.044	448.76
678.38	410.46
678.717	418.12
679.053	379.81
679.389	382.37
679.725	390.03
680.062	387.48
680.398	441.1
680.734	423.22
681.07	428.33
681.406	392.58
681.742	344.07
682.077	351.73
682.413	433.44
682.749	390.03
683.085	387.48
683.42	435.99
683.756	413.01
684.091	372.15
684.427	361.94
684.762	425.78
685.098	374.71
685.433	387.48
685.768	418.12
686.104	387.48
686.439	415.56
686.774	410.46
687.109	374.71
687.444	405.35
687.779	461.52
688.114	390.03
688.449	372.15
688.784	410.46
689.119	364.49
689.454	407.9
689.789	453.86
690.123	377.26
690.458	397.69
690.792	446.2
691.127	400.24
691.461	367.05
691.796	344.07
692.13	323.64
692.465	395.14
692.799	397.69
693.133	390.03
693.467	328.75
693.802	390.03
694.136	395.14
694.47	359.39
694.804	392.58
695.138	372.15
695.472	428.33
695.806	364.49
696.139	443.65
696.473	387.48
696.807	428.33
697.141	420.67
697.474	390.03
697.808	413.01
698.141	313.43
698.475	425.78
698.808	372.15
699.142	361.94
699.475	387.48
699.808	420.67
700.142	400.24
700.475	387.48
700.808	428.33
701.141	374.71
701.474	438.54
701.807	341.51
702.14	430.88
702.473	446.2
702.806	384.92
703.139	415.56
703.472	443.65
703.804	413.01
704.137	430.88
704.47	400.24
704.802	354.28
705.135	367.05
705.467	428.33
705.8	407.9
706.132	464.08
706.464	364.49
706.797	369.6
707.129	379.81
707.461	287.89
707.793	361.94
708.125	446.2
708.457	438.54
708.789	433.44
709.121	387.48
709.453	387.48
709.785	379.81
710.117	395.14
710.449	428.33
710.781	384.92
711.112	364.49
711.444	418.12
711.775	420.67
712.107	395.14
712.438	384.92
712.77	446.2
713.101	461.52
713.433	377.26
713.764	379.81
714.095	395.14
714.426	430.88
714.757	397.69
715.089	430.88
715.42	397.69
715.751	395.14
716.082	382.37
716.412	379.81
716.743	464.08
717.074	338.96
717.405	379.81
717.736	392.58
718.066	377.26
718.397	402.8
718.727	382.37
719.058	458.97
719.388	392.58
719.719	338.96
720.049	397.69
720.38	407.9
720.71	390.03
721.04	367.05
721.37	418.12
721.7	425.78
722.031	384.92
722.361	356.83
722.691	405.35
723.021	369.6
723.35	400.24
723.68	384.92
724.01	344.07
724.34	390.03
724.67	361.94
724.999	402.8
725.329	395.14
725.658	430.88
725.988	423.22
726.317	423.22
726.647	413.01
726.976	410.46
727.306	392.58
727.635	367.05
727.964	392.58
728.293	351.73
728.622	382.37
728.952	428.33
729.281	390.03
729.61	392.58
729.939	392.58
730.267	367.05
730.596	333.85
730.925	351.73
731.254	387.48
731.583	423.22
731.911	395.14
732.24	395.14
732.568	377.26
732.897	379.81
733.225	351.73
733.554	374.71
733.882	461.52
734.21	471.74
734.539	413.01
734.867	367.05
735.195	390.03
735.523	402.8
735.851	356.83
736.179	407.9
736.507	349.17
736.835	361.94
737.163	336.41
737.491	395.14
737.819	313.43
738.147	372.15
738.474	392.58
738.802	446.2
739.13	374.71
739.457	420.67
739.785	346.62
740.112	407.9
740.44	374.71
740.767	400.24
741.094	392.58
741.422	338.96
741.749	354.28
742.076	344.07
742.403	280.23
742.73	392.58
743.057	372.15
743.384	415.56
743.711	410.46
744.038	418.12
744.365	361.94
744.692	418.12
745.018	405.35
745.345	407.9
745.672	374.71
745.998	372.15
746.325	395.14
746.651	410.46
746.978	410.46
747.304	420.67
747.631	326.19
747.957	374.71
748.283	510.04
748.61	428.33
748.936	428.33
749.262	435.99
749.588	430.88
749.914	456.42
750.24	425.78
750.566	395.14
750.892	441.1
751.218	397.69
751.543	374.71
751.869	272.57
752.195	379.81
752.521	428.33
752.846	369.6
753.172	405.35
753.497	349.17
753.823	397.69
754.148	441.1
754.473	418.12
754.799	456.42
755.124	336.41
755.449	384.92
755.774	361.94
756.1	420.67
756.425	390.03
756.75	333.85
757.075	410.46
757.4	402.8
757.724	438.54
758.049	428.33
758.374	359.39
758.699	413.01
759.024	530.46
759.348	405.35
759.673	441.1
759.997	397.69
760.322	397.69
760.646	405.35
760.971	313.43
761.295	397.69
761.619	446.2
761.944	379.81
762.268	415.56
762.592	369.6
762.916	435.99
763.24	405.35
763.564	448.76
763.888	415.56
764.212	433.44
764.536	420.67
764.86	471.74
765.184	395.14
765.508	441.1
765.831	407.9
766.155	556
766.478	448.76
766.802	410.46
767.126	361.94
767.449	430.88
767.772	479.4
768.096	379.81
768.419	413.01
768.742	402.8
769.066	407.9
769.389	481.95
769.712	356.83
770.035	336.41
770.358	464.08
770.681	456.42
771.004	382.37
771.327	374.71
771.65	425.78
771.972	407.9
772.295	446.2
772.618	361.94
772.941	374.71
773.263	374.71
773.586	384.92
773.908	395.14
774.231	351.73
774.553	395.14
774.875	415.56
775.198	430.88
775.52	400.24
775.842	438.54
776.164	425.78
776.487	359.39
776.809	397.69
777.131	310.87
777.453	369.6
777.775	410.46
778.096	397.69
778.418	405.35
778.74	361.94
779.062	418.12
779.384	382.37
779.705	395.14
780.027	430.88
780.348	372.15
780.67	384.92
780.991	382.37
781.313	425.78
781.634	392.58
781.955	443.65
782.277	410.46
782.598	367.05
782.919	369.6
783.24	438.54
783.561	392.58
783.882	402.8
784.203	374.71
784.524	392.58
784.845	415.56
785.166	397.69
785.487	418.12
785.807	430.88
786.128	413.01
786.449	384.92
786.769	384.92
787.09	395.14
787.41	433.44
787.731	413.01
788.051	328.75
788.372	395.14
788.692	384.92
789.012	392.58
789.332	387.48
789.653	377.26
789.973	410.46
790.293	415.56
790.613	438.54
790.933	420.67
791.253	379.81
791.573	433.44
791.893	405.35
792.212	349.17
792.532	407.9
792.852	418.12
793.171	387.48
793.491	400.24
793.811	377.26
794.13	384.92
794.45	456.42
794.769	395.14
795.088	428.33
795.408	323.64
795.727	395.14
796.046	400.24
796.365	287.89
796.684	338.96
797.004	441.1
797.323	430.88
797.642	443.65
797.96	392.58
798.279	448.76
798.598	367.05
798.917	397.69
799.236	433.44
799.554	469.18
799.873	359.39
800.192	374.71
800.51	374.71
800.829	361.94
801.147	349.17
801.466	346.62
801.784	349.17
802.102	430.88
802.421	382.37
802.739	372.15
803.057	405.35
803.375	336.41
803.693	458.97
804.011	402.8
804.329	372.15
804.647	410.46
804.965	349.17
805.283	333.85
805.601	489.61
805.918	428.33
806.236	418.12
806.554	392.58
806.871	425.78
807.189	364.49
807.507	379.81
807.824	400.24
808.141	458.97
808.459	390.03
808.776	390.03
809.093	453.86
809.411	418.12
809.728	390.03
810.045	428.33
810.362	407.9
810.679	428.33
810.996	384.92
811.313	469.18
811.63	333.85
811.947	420.67
812.264	354.28
812.58	374.71
812.897	374.71
813.214	471.74
813.53	397.69
813.847	420.67
814.163	379.81
814.48	441.1
814.796	356.83
815.113	379.81
815.429	392.58
815.745	423.22
816.061	356.83
816.378	364.49
816.694	392.58
817.01	356.83
817.326	402.8
817.642	374.71
817.958	369.6
818.274	423.22
818.59	410.46
818.905	438.54
819.221	369.6
819.537	361.94
819.852	407.9
820.168	387.48
820.484	308.32
820.799	356.83
821.115	382.37
821.43	374.71
821.745	395.14
822.061	423.22
822.376	338.96
822.691	407.9
823.006	425.78
823.322	405.35
823.637	372.15
823.952	433.44
824.267	354.28
824.582	374.71
824.897	344.07
825.211	392.58
825.526	367.05
825.841	384.92
826.156	379.81
826.47	369.6
826.785	413.01
827.1	446.2
827.414	359.39
827.729	453.86
828.043	397.69
828.357	438.54
828.672	379.81
828.986	341.51
829.3	346.62
829.614	359.39
829.929	425.78
830.243	326.19
830.557	397.69
830.871	364.49
831.185	341.51
831.499	374.71
831.812	333.85
832.126	405.35
832.44	420.67
832.754	382.37
833.067	400.24
833.381	374.71
833.695	364.49
834.008	377.26
834.322	372.15
834.635	402.8
834.948	410.46
835.262	344.07
835.575	390.03
835.888	387.48
836.201	392.58
836.515	423.22
836.828	405.35
837.141	361.94
837.454	374.71
837.767	382.37
838.08	479.4
838.392	451.31
838.705	423.22
839.018	425.78
839.331	377.26
839.643	364.49
839.956	387.48
840.269	336.41
840.581	435.99
840.894	395.14
841.206	374.71
841.519	538.12
841.831	446.2
842.143	446.2
842.455	410.46
842.768	395.14
843.08	384.92
843.392	420.67
843.704	379.81
844.016	392.58
844.328	395.14
844.64	374.71
844.952	407.9
845.263	407.9
845.575	413.01
845.887	359.39
846.199	374.71
846.51	425.78
846.822	359.39
847.133	372.15
847.445	382.37
847.756	379.81
848.068	410.46
848.379	392.58
848.69	413.01
849.002	310.87
849.313	346.62
849.624	413.01
849.935	372.15
850.246	361.94
850.557	336.41
850.868	364.49
851.179	367.05
851.49	407.9
851.801	377.26
852.112	410.46
852.422	405.35
852.733	415.56
853.044	379.81
853.354	425.78
853.665	341.51
853.975	323.64
854.286	364.49
854.596	361.94
854.906	359.39
855.217	341.51
855.527	379.81
855.837	369.6
856.147	397.69
856.458	413.01
856.768	382.37
857.078	397.69
857.388	407.9
857.698	374.71
858.007	387.48
858.317	351.73
858.627	379.81
858.937	395.14
859.246	441.1
859.556	390.03
859.866	372.15
860.175	321.09
860.485	395.14
860.794	407.9
861.104	310.87
861.413	402.8
861.722	428.33
862.032	364.49
862.341	441.1
862.65	413.01
862.959	346.62
863.268	359.39
863.577	400.24
863.886	443.65
864.195	407.9
864.504	374.71
864.813	321.09
865.122	346.62
865.43	315.98
865.739	390.03
866.048	359.39
866.356	372.15
866.665	415.56
866.973	512.59
867.282	387.48
867.59	377.26
867.899	361.94
868.207	395.14
868.515	372.15
868.823	395.14
869.132	359.39
869.44	377.26
869.748	400.24
870.056	321.09
870.364	410.46
870.672	367.05
870.98	374.71
871.288	397.69
871.595	331.3
871.903	392.58
872.211	349.17
872.518	400.24
872.826	456.42
873.134	346.62
873.441	387.48
873.749	443.65
874.056	397.69
874.363	441.1
874.671	308.32
874.978	410.46
875.285	428.33
875.592	415.56
875.9	397.69
876.207	428.33
876.514	397.69
876.821	400.24
877.128	384.92
877.435	354.28
877.741	415.56
878.048	364.49
878.355	387.48
878.662	415.56
878.968	395.14
879.275	390.03
879.582	395.14
879.888	446.2
880.195	374.71
880.501	384.92
880.807	361.94
881.114	344.07
881.42	369.6
881.726	446.2
882.032	435.99
882.339	346.62
882.645	425.78
882.951	331.3
883.257	390.03
883.563	415.56
883.869	328.75
884.174	338.96
884.48	438.54
884.786	474.29
885.092	369.6
885.397	402.8
885.703	402.8
886.009	323.64
886.314	361.94
886.62	392.58
886.925	387.48
887.231	423.22
887.536	435.99
887.841	372.15
888.146	387.48
888.452	364.49
888.757	402.8
889.062	425.78
889.367	372.15
889.672	395.14
889.977	415.56
890.282	341.51
890.587	349.17
890.892	361.94
891.196	420.67
891.501	369.6
891.806	464.08
892.11	448.76
892.415	331.3
892.72	418.12
893.024	453.86
893.328	443.65
893.633	410.46
893.937	372.15
894.242	395.14
894.546	407.9
894.85	428.33
895.154	392.58
895.458	361.94
895.762	359.39
896.066	303.21
896.37	425.78
896.674	402.8
896.978	402.8
897.282	387.48
897.586	384.92
897.89	400.24
898.193	372.15
898.497	474.29
898.801	395.14
899.104	400.24
899.408	407.9
899.711	407.9
900.014	423.22
900.318	395.14
900.621	392.58
900.924	395.14
901.228	364.49
901.531	418.12
901.834	354.28
902.137	336.41
902.44	384.92
902.743	354.28
903.046	415.56
903.349	369.6
903.652	364.49
903.955	420.67
904.257	344.07
904.56	338.96
904.863	346.62
905.165	395.14
905.468	315.98
905.77	369.6
906.073	377.26
906.375	359.39
906.678	410.46
906.98	369.6
907.282	438.54
907.584	374.71
907.887	361.94
908.189	387.48
908.491	361.94
908.793	390.03
909.095	369.6
909.397	402.8
909.699	379.81
910.001	428.33
910.302	392.58
910.604	367.05
910.906	346.62
911.208	315.98
911.509	313.43
911.811	361.94
912.112	313.43
912.414	374.71
912.715	349.17
913.017	364.49
913.318	392.58
913.619	395.14
913.92	303.21
914.222	407.9
914.523	410.46
914.824	382.37
915.125	425.78
915.426	420.67
915.727	466.63
916.028	402.8
916.329	351.73
916.63	374.71
916.93	382.37
917.231	364.49
917.532	402.8
917.832	387.48
918.133	349.17
918.434	407.9
918.734	390.03
919.034	372.15
919.335	400.24
919.635	341.51
919.935	384.92
920.236	387.48
920.536	361.94
920.836	356.83
921.136	397.69
921.436	456.42
921.736	369.6
922.036	341.51
922.336	344.07
922.636	374.71
922.936	400.24
923.236	413.01
923.535	504.93
923.835	395.14
924.135	333.85
924.434	428.33
924.734	397.69
925.033	336.41
925.333	395.14
925.632	410.46
925.932	435.99
926.231	400.24
926.53	354.28
926.83	354.28
927.129	382.37
927.428	379.81
927.727	372.15
928.026	333.85
928.325	435.99
928.624	448.76
928.923	321.09
929.222	315.98
929.52	318.53
929.819	323.64
930.118	415.56
930.417	438.54
930.715	466.63
931.014	428.33
931.312	461.52
931.611	390.03
931.909	338.96
932.207	364.49
932.506	379.81
932.804	407.9
933.102	397.69
933.401	351.73
933.699	349.17
933.997	326.19
934.295	313.43
934.593	415.56
934.891	367.05
935.189	387.48
935.487	395.14
935.784	390.03
936.082	395.14
936.38	425.78
936.677	390.03
936.975	405.35
937.273	372.15
937.57	390.03
937.868	364.49
938.165	356.83
938.463	395.14
938.76	397.69
939.057	351.73
939.354	374.71
939.652	420.67
939.949	359.39
940.246	384.92
940.543	341.51
940.84	354.28
941.137	367.05
941.434	413.01
941.731	390.03
942.028	331.3
942.324	405.35
942.621	400.24
942.918	361.94
943.214	321.09
943.511	402.8
943.807	415.56
944.104	341.51
944.4	382.37
944.697	499.82
944.993	387.48
945.29	349.17
945.586	336.41
945.882	402.8
946.178	395.14
946.474	410.46
946.77	382.37
947.066	359.39
947.362	438.54
947.658	379.81
947.954	392.58
948.25	377.26
948.546	428.33
948.842	405.35
949.137	392.58
949.433	351.73
949.729	344.07
950.024	400.24
950.32	374.71
950.615	382.37
950.91	321.09
951.206	430.88
951.501	438.54
951.796	430.88
952.092	392.58
952.387	397.69
952.682	377.26
952.977	395.14
953.272	372.15
953.567	387.48
953.862	384.92
954.157	349.17
954.452	400.24
954.747	351.73
955.041	374.71
955.336	364.49
955.631	315.98
955.925	407.9
956.22	402.8
956.514	359.39
956.809	395.14
957.103	415.56
957.398	441.1
957.692	438.54
957.986	407.9
958.281	400.24
958.575	481.95
958.869	392.58
959.163	384.92
959.457	354.28
959.751	397.69
960.045	382.37
960.339	382.37
960.633	400.24
960.927	405.35
961.221	395.14
961.514	438.54
961.808	418.12
962.102	438.54
962.395	349.17
962.689	384.92
962.982	364.49
963.276	349.17
963.569	395.14
963.862	402.8
964.156	410.46
964.449	420.67
964.742	402.8
965.035	323.64
965.328	428.33
965.622	418.12
965.915	397.69
966.208	356.83
966.5	384.92
966.793	333.85
967.086	364.49
967.379	354.28
967.672	425.78
967.964	497.27
968.257	369.6
968.55	359.39
968.842	415.56
969.135	430.88
969.427	410.46
969.72	423.22
970.012	392.58
970.304	354.28
970.597	402.8
970.889	356.83
971.181	361.94
971.473	346.62
971.765	415.56
972.057	285.34
972.349	349.17
972.641	351.73
972.933	420.67
973.225	471.74
973.517	441.1
973.809	361.94
974.1	382.37
974.392	341.51
974.684	397.69
974.975	407.9
975.267	341.51
975.558	402.8
975.85	453.86
976.141	395.14
976.432	400.24
976.724	438.54
977.015	402.8
977.306	387.48
977.597	487.06
977.888	407.9
978.179	369.6
978.47	367.05
978.761	405.35
979.052	364.49
979.343	384.92
979.634	372.15
979.925	349.17
980.215	410.46
980.506	379.81
980.797	379.81
981.087	356.83
981.378	356.83
981.668	413.01
981.959	367.05
982.249	397.69
982.54	374.71
982.83	308.32
983.12	387.48
983.41	333.85
983.701	364.49
983.991	441.1
984.281	356.83
984.571	354.28
984.861	328.75
985.151	298.11
985.441	397.69
985.73	359.39
986.02	364.49
986.31	438.54
986.6	397.69
986.889	400.24
987.179	402.8
987.469	344.07
987.758	415.56
988.048	400.24
988.337	351.73
988.626	300.66
988.916	374.71
989.205	415.56
989.494	402.8
989.783	392.58
990.073	346.62
990.362	344.07
990.651	318.53
990.94	361.94
991.229	423.22
991.518	344.07
991.806	318.53
992.095	372.15
992.384	428.33
992.673	361.94
992.961	354.28
993.25	367.05
993.539	346.62
993.827	410.46
994.116	397.69
994.404	400.24
994.692	405.35
994.981	405.35
995.269	367.05
995.557	425.78
995.846	321.09
996.134	395.14
996.422	451.31
996.71	384.92
996.998	379.81
997.286	397.69
997.574	456.42
997.862	418.12
998.15	379.81
998.437	402.8
998.725	390.03
999.013	430.88
999.3	333.85
999.588	402.8
999.876	438.54
1000.163	397.69
1000.45	402.8
1000.738	323.64
1001.025	326.19
1001.313	379.81
1001.6	405.35
1001.887	382.37
1002.174	405.35
1002.461	349.17
1002.748	418.12
1003.036	395.14
1003.322	356.83
1003.609	415.56
1003.896	351.73
1004.183	313.43
1004.47	415.56
1004.757	364.49
1005.043	415.56
1005.33	392.58
1005.617	374.71
1005.903	410.46
1006.19	374.71
1006.476	400.24
1006.763	413.01
1007.049	338.96
1007.335	423.22
1007.622	338.96
1007.908	310.87
1008.194	407.9
1008.48	387.48
1008.766	377.26
1009.053	387.48
1009.339	443.65
1009.625	323.64
1009.91	369.6
1010.196	395.14
1010.482	400.24
1010.768	392.58
1011.054	415.56
1011.339	382.37
1011.625	364.49
1011.911	382.37
1012.196	458.97
1012.482	425.78
1012.767	377.26
1013.052	390.03
1013.338	407.9
1013.623	390.03
1013.908	338.96
1014.194	379.81
1014.479	367.05
1014.764	415.56
1015.049	315.98
1015.334	423.22
1015.619	407.9
1015.904	328.75
1016.189	374.71
1016.474	384.92
1016.758	397.69
1017.043	369.6
1017.328	351.73
1017.613	338.96
1017.897	364.49
1018.182	476.84
1018.466	356.83
1018.751	361.94
1019.035	336.41
1019.32	395.14
1019.604	379.81
1019.888	395.14
1020.172	395.14
1020.457	395.14
