Data from 2025-11-25_spectrum_FLMS141361__6__14-38-22-182.txt Node

Date: Tue Nov 25 14:38:22 MST 2025
User: james
Spectrometer: FLMS14136
Trigger mode: 0
Integration Time (sec): 1.000000E-1
Scans to average: 1
Electric dark correction enabled: true
Nonlinearity correction enabled: false
Boxcar width: 0
XAxis mode: Wavelengths
Number of Pixels in Spectrum: 2048
>>>>>Begin Spectral Data<<<<<
339.315	-84.58
339.697	-84.58
340.079	-84.58
340.461	-61.6
340.843	-117.77
341.225	-133.09
341.607	-115.22
341.989	-133.09
342.371	-20.75
342.752	-115.22
343.134	-87.13
343.516	-61.6
343.897	-46.28
344.279	55.86
344.661	60.96
345.042	63.52
345.423	106.92
345.805	83.94
346.186	73.73
346.567	122.24
346.949	145.22
347.33	226.93
347.711	191.18
348.092	216.72
348.473	255.02
348.854	211.61
349.235	221.82
349.616	275.45
349.997	303.53
350.378	331.62
350.758	326.51
351.139	336.73
351.52	403.11
351.9	398.01
352.281	410.77
352.661	408.22
353.042	398.01
353.422	426.09
353.803	438.86
354.183	298.43
354.563	346.94
354.943	403.11
355.324	387.79
355.704	326.51
356.084	303.53
356.464	398.01
356.844	441.42
357.224	387.79
357.603	382.69
357.983	357.15
358.363	357.15
358.743	380.13
359.122	387.79
359.502	364.81
359.882	377.58
360.261	408.22
360.641	359.71
361.02	372.47
361.399	408.22
361.779	392.9
362.158	377.58
362.537	390.35
362.916	375.03
363.296	341.83
363.675	318.85
364.054	306.09
364.433	380.13
364.812	387.79
365.19	329.07
365.569	415.88
365.948	413.33
366.327	400.56
366.705	336.73
367.084	334.17
367.463	428.65
367.841	385.24
368.22	369.92
368.598	408.22
368.977	372.47
369.355	352.05
369.733	408.22
370.111	354.6
370.49	454.18
370.868	420.99
371.246	369.92
371.624	413.33
372.002	387.79
372.38	436.31
372.758	395.45
373.136	318.85
373.513	369.92
373.891	382.69
374.269	352.05
374.646	367.37
375.024	354.6
375.402	400.56
375.779	380.13
376.157	344.39
376.534	341.83
376.911	326.51
377.289	318.85
377.666	293.32
378.043	357.15
378.42	318.85
378.797	357.15
379.175	390.35
379.552	341.83
379.929	387.79
380.305	410.77
380.682	413.33
381.059	420.99
381.436	359.71
381.813	352.05
382.189	400.56
382.566	375.03
382.943	369.92
383.319	400.56
383.696	426.09
384.072	410.77
384.448	326.51
384.825	405.67
385.201	451.63
385.577	392.9
385.953	431.2
386.329	357.15
386.706	326.51
387.082	283.11
387.458	400.56
387.834	395.45
388.209	367.37
388.585	408.22
388.961	377.58
389.337	369.92
389.713	398.01
390.088	387.79
390.464	367.37
390.839	321.41
391.215	375.03
391.59	377.58
391.966	408.22
392.341	408.22
392.716	472.06
393.092	449.08
393.467	387.79
393.842	423.54
394.217	352.05
394.592	380.13
394.967	372.47
395.342	372.47
395.717	380.13
396.092	395.45
396.467	405.67
396.841	461.84
397.216	405.67
397.591	318.85
397.965	357.15
398.34	346.94
398.714	420.99
399.089	403.11
399.463	375.03
399.838	367.37
400.212	403.11
400.586	415.88
400.961	410.77
401.335	438.86
401.709	418.43
402.083	344.39
402.457	403.11
402.831	400.56
403.205	428.65
403.579	398.01
403.953	438.86
404.326	390.35
404.7	431.2
405.074	418.43
405.447	367.37
405.821	372.47
406.195	441.42
406.568	344.39
406.942	469.5
407.315	423.54
407.688	456.74
408.062	420.99
408.435	326.51
408.808	408.22
409.181	380.13
409.554	413.33
409.927	446.52
410.3	474.61
410.673	423.54
411.046	431.2
411.419	415.88
411.792	382.69
412.165	431.2
412.537	369.92
412.91	461.84
413.283	387.79
413.655	359.71
414.028	364.81
414.4	441.42
414.773	385.24
415.145	341.83
415.517	395.45
415.889	438.86
416.262	451.63
416.634	403.11
417.006	395.45
417.378	357.15
417.75	433.76
418.122	385.24
418.494	395.45
418.866	377.58
419.238	403.11
419.609	431.2
419.981	428.65
420.353	398.01
420.725	423.54
421.096	456.74
421.468	400.56
421.839	449.08
422.211	413.33
422.582	420.99
422.953	433.76
423.325	420.99
423.696	433.76
424.067	385.24
424.438	415.88
424.809	369.92
425.18	405.67
425.551	380.13
425.922	418.43
426.293	438.86
426.664	375.03
427.035	443.97
427.406	400.56
427.776	423.54
428.147	469.5
428.518	433.76
428.888	395.45
429.259	375.03
429.629	390.35
429.999	413.33
430.37	451.63
430.74	398.01
431.11	403.11
431.481	415.88
431.851	364.81
432.221	400.56
432.591	443.97
432.961	395.45
433.331	336.73
433.701	362.26
434.071	380.13
434.441	395.45
434.81	464.4
435.18	382.69
435.55	380.13
435.919	431.2
436.289	423.54
436.658	436.31
437.028	369.92
437.397	415.88
437.767	375.03
438.136	380.13
438.505	413.33
438.875	390.35
439.244	428.65
439.613	454.18
439.982	405.67
440.351	395.45
440.72	380.13
441.089	438.86
441.458	451.63
441.827	398.01
442.196	423.54
442.564	497.59
442.933	459.29
443.302	405.67
443.67	372.47
444.039	364.81
444.407	398.01
444.776	433.76
445.144	428.65
445.513	400.56
445.881	367.37
446.249	387.79
446.617	390.35
446.986	341.83
447.354	431.2
447.722	469.5
448.09	505.25
448.458	426.09
448.826	528.23
449.194	446.52
449.561	382.69
449.929	390.35
450.297	392.9
450.665	433.76
451.032	377.58
451.4	349.49
451.767	400.56
452.135	385.24
452.502	405.67
452.87	428.65
453.237	446.52
453.604	380.13
453.971	474.61
454.339	428.65
454.706	459.29
455.073	495.04
455.44	431.2
455.807	380.13
456.174	428.65
456.541	484.82
456.908	405.67
457.274	420.99
457.641	431.2
458.008	495.04
458.374	472.06
458.741	428.65
459.108	410.77
459.474	405.67
459.841	446.52
460.207	456.74
460.573	392.9
460.94	359.71
461.306	377.58
461.672	433.76
462.038	443.97
462.404	466.95
462.771	431.2
463.137	408.22
463.503	451.63
463.868	410.77
464.234	403.11
464.6	395.45
464.966	392.9
465.332	369.92
465.697	375.03
466.063	431.2
466.429	449.08
466.794	431.2
467.16	446.52
467.525	423.54
467.89	405.67
468.256	403.11
468.621	380.13
468.986	392.9
469.351	405.67
469.717	367.37
470.082	385.24
470.447	405.67
470.812	426.09
471.177	382.69
471.542	433.76
471.906	387.79
472.271	362.26
472.636	413.33
473.001	477.16
473.365	426.09
473.73	357.15
474.094	446.52
474.459	400.56
474.823	423.54
475.188	433.76
475.552	454.18
475.917	464.4
476.281	329.07
476.645	436.31
477.009	461.84
477.373	492.48
477.737	472.06
478.101	441.42
478.465	449.08
478.829	436.31
479.193	431.2
479.557	431.2
479.921	426.09
480.284	387.79
480.648	367.37
481.012	436.31
481.375	410.77
481.739	454.18
482.102	408.22
482.466	464.4
482.829	525.68
483.193	441.42
483.556	375.03
483.919	428.65
484.282	426.09
484.645	461.84
485.009	518.02
485.372	428.65
485.735	474.61
486.098	428.65
486.46	502.7
486.823	372.47
487.186	449.08
487.549	451.63
487.912	387.79
488.274	380.13
488.637	451.63
488.999	367.37
489.362	451.63
489.724	443.97
490.087	415.88
490.449	415.88
490.811	346.94
491.174	461.84
491.536	420.99
491.898	464.4
492.26	403.11
492.622	423.54
492.984	415.88
493.346	405.67
493.708	344.39
494.07	405.67
494.432	380.13
494.794	459.29
495.155	387.79
495.517	367.37
495.879	382.69
496.24	431.2
496.602	428.65
496.963	449.08
497.325	500.14
497.686	405.67
498.048	426.09
498.409	372.47
498.77	423.54
499.131	403.11
499.492	403.11
499.854	423.54
500.215	405.67
500.576	456.74
500.937	441.42
501.298	390.35
501.658	410.77
502.019	438.86
502.38	464.4
502.741	395.45
503.101	415.88
503.462	492.48
503.823	454.18
504.183	410.77
504.543	469.5
504.904	413.33
505.264	369.92
505.625	436.31
505.985	415.88
506.345	454.18
506.705	369.92
507.065	441.42
507.426	438.86
507.786	398.01
508.146	451.63
508.505	431.2
508.865	415.88
509.225	413.33
509.585	474.61
509.945	410.77
510.304	446.52
510.664	382.69
511.024	426.09
511.383	436.31
511.743	451.63
512.102	372.47
512.462	431.2
512.821	428.65
513.18	387.79
513.539	375.03
513.899	359.71
514.258	487.38
514.617	474.61
514.976	423.54
515.335	352.05
515.694	349.49
516.053	408.22
516.412	451.63
516.771	415.88
517.129	415.88
517.488	426.09
517.847	505.25
518.205	441.42
518.564	398.01
518.922	413.33
519.281	449.08
519.639	405.67
519.998	380.13
520.356	382.69
520.714	380.13
521.073	464.4
521.431	474.61
521.789	461.84
522.147	436.31
522.505	472.06
522.863	405.67
523.221	472.06
523.579	426.09
523.937	413.33
524.295	456.74
524.652	423.54
525.01	497.59
525.368	443.97
525.725	461.84
526.083	433.76
526.44	415.88
526.798	449.08
527.155	472.06
527.513	456.74
527.87	395.45
528.227	433.76
528.584	372.47
528.942	405.67
529.299	367.37
529.656	479.72
530.013	400.56
530.37	426.09
530.727	382.69
531.083	474.61
531.44	352.05
531.797	390.35
532.154	413.33
532.511	472.06
532.867	390.35
533.224	420.99
533.58	497.59
533.937	472.06
534.293	390.35
534.65	472.06
535.006	426.09
535.362	398.01
535.718	456.74
536.075	477.16
536.431	390.35
536.787	428.65
537.143	443.97
537.499	464.4
537.855	433.76
538.211	446.52
538.567	382.69
538.923	487.38
539.278	482.27
539.634	477.16
539.99	408.22
540.345	487.38
540.701	418.43
541.056	446.52
541.412	423.54
541.767	459.29
542.123	479.72
542.478	392.9
542.833	423.54
543.188	380.13
543.544	413.33
543.899	418.43
544.254	410.77
544.609	375.03
544.964	420.99
545.319	446.52
545.674	443.97
546.029	492.48
546.383	387.79
546.738	431.2
547.093	495.04
547.447	512.91
547.802	477.16
548.157	433.76
548.511	487.38
548.866	446.52
549.22	482.27
549.574	387.79
549.929	466.95
550.283	377.58
550.637	403.11
550.991	482.27
551.345	408.22
551.699	413.33
552.053	428.65
552.407	431.2
552.761	451.63
553.115	433.76
553.469	461.84
553.823	428.65
554.176	415.88
554.53	446.52
554.884	466.95
555.237	655.9
555.591	454.18
555.944	408.22
556.298	464.4
556.651	398.01
557.005	426.09
557.358	405.67
557.711	377.58
558.064	400.56
558.417	454.18
558.771	525.68
559.124	479.72
559.477	500.14
559.83	441.42
560.182	523.12
560.535	415.88
560.888	423.54
561.241	398.01
561.594	451.63
561.946	390.35
562.299	392.9
562.651	446.52
563.004	474.61
563.356	390.35
563.709	477.16
564.061	415.88
564.413	423.54
564.766	426.09
565.118	441.42
565.47	469.5
565.822	392.9
566.174	410.77
566.526	392.9
566.878	461.84
567.23	392.9
567.582	385.24
567.934	441.42
568.286	466.95
568.638	466.95
568.989	441.42
569.341	464.4
569.693	497.59
570.044	413.33
570.396	443.97
570.747	477.16
571.098	385.24
571.45	449.08
571.801	441.42
572.152	405.67
572.504	418.43
572.855	484.82
573.206	464.4
573.557	441.42
573.908	438.86
574.259	443.97
574.61	436.31
574.961	426.09
575.311	492.48
575.662	449.08
576.013	420.99
576.364	449.08
576.714	428.65
577.065	431.2
577.415	489.93
577.766	436.31
578.116	438.86
578.467	357.15
578.817	369.92
579.167	443.97
579.518	515.46
579.868	489.93
580.218	500.14
580.568	395.45
580.918	482.27
581.268	451.63
581.618	403.11
581.968	469.5
582.318	433.76
582.668	426.09
583.017	466.95
583.367	477.16
583.717	474.61
584.066	441.42
584.416	489.93
584.765	428.65
585.115	459.29
585.464	446.52
585.814	420.99
586.163	438.86
586.512	474.61
586.862	443.97
587.211	495.04
587.56	441.42
587.909	423.54
588.258	420.99
588.607	359.71
588.956	441.42
589.305	400.56
589.654	431.2
590.002	466.95
590.351	482.27
590.7	344.39
591.048	431.2
591.397	390.35
591.746	484.82
592.094	415.88
592.443	413.33
592.791	451.63
593.139	395.45
593.488	431.2
593.836	428.65
594.184	410.77
594.532	446.52
594.88	433.76
595.228	426.09
595.576	428.65
595.924	405.67
596.272	469.5
596.62	395.45
596.968	459.29
597.316	377.58
597.664	423.54
598.011	398.01
598.359	443.97
598.706	433.76
599.054	418.43
599.402	431.2
599.749	403.11
600.096	466.95
600.444	446.52
600.791	387.79
601.138	446.52
601.485	441.42
601.833	392.9
602.18	372.47
602.527	443.97
602.874	403.11
603.221	385.24
603.568	400.56
603.914	456.74
604.261	426.09
604.608	436.31
604.955	469.5
605.301	410.77
605.648	428.65
605.995	474.61
606.341	459.29
606.688	500.14
607.034	548.66
607.38	418.43
607.727	436.31
608.073	403.11
608.419	464.4
608.765	438.86
609.112	392.9
609.458	423.54
609.804	420.99
610.15	405.67
610.496	469.5
610.842	461.84
611.187	426.09
611.533	461.84
611.879	449.08
612.225	505.25
612.57	415.88
612.916	443.97
613.261	477.16
613.607	413.33
613.952	461.84
614.298	408.22
614.643	410.77
614.989	398.01
615.334	415.88
615.679	451.63
616.024	413.33
616.369	446.52
616.714	428.65
617.059	459.29
617.404	431.2
617.749	431.2
618.094	433.76
618.439	418.43
618.784	438.86
619.129	420.99
619.473	380.13
619.818	420.99
620.163	495.04
620.507	484.82
620.852	451.63
621.196	410.77
621.54	426.09
621.885	466.95
622.229	446.52
622.573	431.2
622.918	426.09
623.262	438.86
623.606	392.9
623.95	438.86
624.294	451.63
624.638	454.18
624.982	413.33
625.326	441.42
625.67	443.97
626.013	431.2
626.357	390.35
626.701	405.67
627.044	400.56
627.388	431.2
627.731	477.16
628.075	415.88
628.418	438.86
628.762	426.09
629.105	431.2
629.448	474.61
629.792	433.76
630.135	403.11
630.478	387.79
630.821	426.09
631.164	477.16
631.507	456.74
631.85	400.56
632.193	428.65
632.536	484.82
632.879	408.22
633.221	428.65
633.564	415.88
633.907	428.65
634.249	441.42
634.592	367.37
634.935	408.22
635.277	438.86
635.619	403.11
635.962	472.06
636.304	438.86
636.646	454.18
636.989	372.47
637.331	441.42
637.673	456.74
638.015	443.97
638.357	461.84
638.699	431.2
639.041	436.31
639.383	403.11
639.725	375.03
640.067	420.99
640.408	502.7
640.75	398.01
641.092	369.92
641.433	469.5
641.775	400.56
642.116	426.09
642.458	449.08
642.799	390.35
643.141	443.97
643.482	390.35
643.823	408.22
644.164	438.86
644.506	477.16
644.847	390.35
645.188	420.99
645.529	398.01
645.87	428.65
646.211	382.69
646.552	461.84
646.893	436.31
647.233	403.11
647.574	382.69
647.915	405.67
648.255	426.09
648.596	438.86
648.937	400.56
649.277	380.13
649.618	382.69
649.958	387.79
650.298	398.01
650.639	400.56
650.979	390.35
651.319	369.92
651.659	392.9
651.999	382.69
652.339	441.42
652.679	390.35
653.019	395.45
653.359	431.2
653.699	375.03
654.039	400.56
654.379	395.45
654.719	438.86
655.058	354.6
655.398	438.86
655.737	482.27
656.077	392.9
656.416	495.04
656.756	423.54
657.095	372.47
657.435	420.99
657.774	451.63
658.113	375.03
658.452	380.13
658.792	349.49
659.131	375.03
659.47	385.24
659.809	418.43
660.148	415.88
660.487	451.63
660.826	479.72
661.164	454.18
661.503	413.33
661.842	454.18
662.181	456.74
662.519	454.18
662.858	405.67
663.196	482.27
663.535	431.2
663.873	423.54
664.212	385.24
664.55	449.08
664.888	466.95
665.226	405.67
665.565	410.77
665.903	653.35
666.241	428.65
666.579	438.86
666.917	392.9
667.255	369.92
667.593	408.22
667.931	464.4
668.268	408.22
668.606	441.42
668.944	364.81
669.282	403.11
669.619	482.27
669.957	428.65
670.294	410.77
670.632	423.54
670.969	364.81
671.307	400.56
671.644	443.97
671.981	380.13
672.318	390.35
672.656	418.43
672.993	441.42
673.33	426.09
673.667	436.31
674.004	420.99
674.341	382.69
674.678	461.84
675.015	377.58
675.351	459.29
675.688	461.84
676.025	410.77
676.362	431.2
676.698	433.76
677.035	398.01
677.371	395.45
677.708	405.67
678.044	415.88
678.38	385.24
678.717	438.86
679.053	428.65
679.389	433.76
679.725	398.01
680.062	392.9
680.398	398.01
680.734	454.18
681.07	375.03
681.406	438.86
681.742	390.35
682.077	423.54
682.413	431.2
682.749	413.33
683.085	387.79
683.42	400.56
683.756	349.49
684.091	385.24
684.427	390.35
684.762	382.69
685.098	431.2
685.433	405.67
685.768	438.86
686.104	436.31
686.439	426.09
686.774	441.42
687.109	428.65
687.444	433.76
687.779	403.11
688.114	433.76
688.449	339.28
688.784	459.29
689.119	436.31
689.454	390.35
689.789	420.99
690.123	375.03
690.458	392.9
690.792	387.79
691.127	364.81
691.461	354.6
691.796	346.94
692.13	395.45
692.465	413.33
692.799	392.9
693.133	413.33
693.467	362.26
693.802	367.37
694.136	400.56
694.47	354.6
694.804	400.56
695.138	446.52
695.472	403.11
695.806	364.81
696.139	382.69
696.473	420.99
696.807	469.5
697.141	472.06
697.474	459.29
697.808	415.88
698.141	461.84
698.475	438.86
698.808	441.42
699.142	449.08
699.475	408.22
699.808	380.13
700.142	352.05
700.475	369.92
700.808	377.58
701.141	372.47
701.474	436.31
701.807	410.77
702.14	380.13
702.473	403.11
702.806	420.99
703.139	403.11
703.472	482.27
703.804	436.31
704.137	405.67
704.47	395.45
704.802	420.99
705.135	375.03
705.467	408.22
705.8	428.65
706.132	443.97
706.464	451.63
706.797	408.22
707.129	479.72
707.461	403.11
707.793	390.35
708.125	420.99
708.457	408.22
708.789	392.9
709.121	451.63
709.453	446.52
709.785	369.92
710.117	500.14
710.449	385.24
710.781	344.39
711.112	403.11
711.444	369.92
711.775	423.54
712.107	413.33
712.438	367.37
712.77	405.67
713.101	400.56
713.433	431.2
713.764	420.99
714.095	377.58
714.426	413.33
714.757	395.45
715.089	329.07
715.42	400.56
715.751	413.33
716.082	436.31
716.412	428.65
716.743	344.39
717.074	375.03
717.405	359.71
717.736	418.43
718.066	423.54
718.397	433.76
718.727	392.9
719.058	472.06
719.388	346.94
719.719	492.48
720.049	420.99
720.38	436.31
720.71	390.35
721.04	413.33
721.37	451.63
721.7	477.16
722.031	433.76
722.361	492.48
722.691	426.09
723.021	451.63
723.35	392.9
723.68	369.92
724.01	461.84
724.34	449.08
724.67	380.13
724.999	405.67
725.329	410.77
725.658	405.67
725.988	413.33
726.317	415.88
726.647	423.54
726.976	456.74
727.306	387.79
727.635	395.45
727.964	387.79
728.293	436.31
728.622	382.69
728.952	352.05
729.281	418.43
729.61	449.08
729.939	418.43
730.267	395.45
730.596	436.31
730.925	433.76
731.254	408.22
731.583	362.26
731.911	398.01
732.24	484.82
732.568	369.92
732.897	372.47
733.225	451.63
733.554	505.25
733.882	400.56
734.21	359.71
734.539	415.88
734.867	441.42
735.195	375.03
735.523	385.24
735.851	400.56
736.179	413.33
736.507	436.31
736.835	392.9
737.163	382.69
737.491	385.24
737.819	395.45
738.147	423.54
738.474	395.45
738.802	431.2
739.13	372.47
739.457	423.54
739.785	395.45
740.112	403.11
740.44	436.31
740.767	364.81
741.094	446.52
741.422	418.43
741.749	420.99
742.076	398.01
742.403	392.9
742.73	418.43
743.057	418.43
743.384	441.42
743.711	438.86
744.038	405.67
744.365	469.5
744.692	398.01
745.018	380.13
745.345	408.22
745.672	377.58
745.998	352.05
746.325	408.22
746.651	420.99
746.978	403.11
747.304	377.58
747.631	339.28
747.957	387.79
748.283	451.63
748.61	344.39
748.936	382.69
749.262	375.03
749.588	403.11
749.914	472.06
750.24	449.08
750.566	405.67
750.892	449.08
751.218	415.88
751.543	380.13
751.869	418.43
752.195	423.54
752.521	418.43
752.846	377.58
753.172	375.03
753.497	398.01
753.823	390.35
754.148	489.93
754.473	367.37
754.799	489.93
755.124	433.76
755.449	431.2
755.774	382.69
756.1	413.33
756.425	392.9
756.75	431.2
757.075	395.45
757.4	375.03
757.724	369.92
758.049	400.56
758.374	395.45
758.699	413.33
759.024	428.65
759.348	390.35
759.673	400.56
759.997	377.58
760.322	451.63
760.646	408.22
760.971	400.56
761.295	497.59
761.619	520.57
761.944	390.35
762.268	413.33
762.592	441.42
762.916	352.05
763.24	449.08
763.564	405.67
763.888	375.03
764.212	420.99
764.536	441.42
764.86	449.08
765.184	382.69
765.508	398.01
765.831	507.8
766.155	676.33
766.478	433.76
766.802	364.81
767.126	510.36
767.449	438.86
767.772	492.48
768.096	523.12
768.419	443.97
768.742	479.72
769.066	408.22
769.389	431.2
769.712	431.2
770.035	456.74
770.358	484.82
770.681	433.76
771.004	441.42
771.327	420.99
771.65	464.4
771.972	487.38
772.295	558.87
772.618	482.27
772.941	599.72
773.263	528.23
773.586	576.74
773.908	551.21
774.231	635.47
774.553	689.09
774.875	689.09
775.198	706.97
775.52	791.23
775.842	860.17
776.164	911.24
776.487	875.49
776.809	931.66
777.131	1059.33
777.453	1008.27
777.775	1161.47
778.096	1087.42
778.418	1130.83
778.74	1255.94
779.062	1495.96
779.384	1792.15
779.705	1825.35
780.027	2001.53
780.348	2073.02
780.67	2244.1
780.991	2356.45
781.313	2527.53
781.634	2553.06
781.955	2854.36
782.277	3278.22
782.598	3717.4
782.919	3959.97
783.24	4585.55
783.561	4557.46
783.882	4575.33
784.203	4723.43
784.524	4943.02
784.845	5091.12
785.166	5303.05
785.487	5412.84
785.807	5481.78
786.128	5402.63
786.449	5905.64
786.769	6492.92
787.09	6674.21
787.41	6980.62
787.731	7506.61
788.051	7708.33
788.372	8032.61
788.692	8760.32
789.012	10082.97
789.332	10902.6
789.653	12327.39
789.973	13678.13
790.293	13920.7
790.613	12820.19
790.933	11885.66
791.253	10820.9
791.573	10368.95
791.893	9993.6
792.212	9730.6
792.532	9324.62
792.852	9347.6
793.171	10001.26
793.491	11318.81
793.811	13011.7
794.13	14058.58
794.45	15634.01
794.769	17278.39
795.088	19979.86
795.408	21560.4
795.727	23110.31
796.046	22413.23
796.365	21550.19
796.684	21813.19
797.004	23061.79
797.323	24251.67
797.642	25893.49
797.96	26835.68
798.279	26233.09
798.598	25850.08
798.917	27364.23
799.236	30622.34
799.554	32889.74
799.873	34253.25
800.192	35394.61
800.51	35984.44
800.829	33216.58
801.147	31311.76
801.466	29623.97
801.784	27900.44
802.102	23651.62
802.421	23917.17
802.739	26993.99
803.057	28880.94
803.375	30762.78
803.693	34592.85
804.011	40409.44
804.329	42482.78
804.647	44505.06
804.965	45812.39
805.283	46716.28
805.601	46136.67
805.918	45161.28
806.236	42791.74
806.554	42265.75
806.871	39245.1
807.189	36122.32
807.507	33336.58
807.824	32330.55
808.141	34003.02
808.459	35489.08
808.776	38050.12
809.093	38412.7
809.411	39640.87
809.728	39788.97
810.045	40302.2
810.362	40473.28
810.679	42079.35
810.996	43787.56
811.313	42482.78
811.63	39857.91
811.947	34868.61
812.264	30910.88
812.58	27277.42
812.897	25862.85
813.214	24489.13
813.53	23838.02
813.847	26955.69
814.163	30170.4
814.48	31990.95
814.796	36298.5
815.113	37478.16
815.429	37204.95
815.745	36339.36
816.061	34237.93
816.378	28582.19
816.694	24851.71
817.01	22459.19
817.326	20850.57
817.642	20148.39
817.958	19673.46
818.274	18315.06
818.59	17633.31
818.905	15342.93
819.221	14431.37
819.537	13984.53
819.852	13729.19
820.168	14066.24
820.484	15327.61
820.799	14942.05
821.115	13570.88
821.43	12789.55
821.745	12115.46
822.061	10871.96
822.376	9799.55
822.691	8895.65
823.006	8290.5
823.322	7978.99
823.637	8162.83
823.952	8254.75
824.267	8272.63
824.582	8267.52
824.897	7733.86
825.211	7269.15
825.526	6947.42
825.841	6505.69
826.156	5711.59
826.47	5246.87
826.785	4514.05
827.1	3883.37
827.414	3467.17
827.729	3158.21
828.043	2874.78
828.357	2711.37
828.672	2790.52
828.986	2913.09
829.3	2948.83
829.614	3015.22
829.929	3005.01
830.243	2764.99
830.557	2749.67
830.871	2466.24
831.185	2422.84
831.499	2223.67
831.812	2032.17
832.126	1753.85
832.44	1549.58
832.754	1472.98
833.067	1536.81
833.381	1322.33
833.695	1164.02
834.008	1204.88
834.322	1084.87
834.635	1125.72
834.948	1018.48
835.262	918.9
835.575	867.83
835.888	834.64
836.201	819.32
836.515	735.05
836.828	673.77
837.141	653.35
837.454	643.13
837.767	640.58
838.08	678.88
838.392	638.03
838.705	678.88
839.018	586.96
839.331	622.71
839.643	594.62
839.956	563.98
840.269	604.83
840.581	553.76
840.894	546.1
841.206	487.38
841.519	512.91
841.831	385.24
842.143	523.12
842.455	431.2
842.768	489.93
843.08	472.06
843.392	438.86
843.704	477.16
844.016	451.63
844.328	398.01
844.64	456.74
844.952	556.32
845.263	495.04
845.575	472.06
845.887	418.43
846.199	464.4
846.51	385.24
846.822	405.67
847.133	451.63
847.445	367.37
847.756	466.95
848.068	382.69
848.379	398.01
848.69	410.77
849.002	464.4
849.313	398.01
849.624	446.52
849.935	449.08
850.246	451.63
850.557	446.52
850.868	428.65
851.179	418.43
851.49	398.01
851.801	395.45
852.112	413.33
852.422	362.26
852.733	392.9
853.044	346.94
853.354	341.83
853.665	344.39
853.975	426.09
854.286	364.81
854.596	357.15
854.906	395.45
855.217	428.65
855.527	392.9
855.837	438.86
856.147	428.65
856.458	403.11
856.768	413.33
857.078	441.42
857.388	408.22
857.698	367.37
858.007	380.13
858.317	415.88
858.627	426.09
858.937	423.54
859.246	443.97
859.556	410.77
859.866	382.69
860.175	398.01
860.485	400.56
860.794	385.24
861.104	420.99
861.413	375.03
861.722	418.43
862.032	436.31
862.341	443.97
862.65	415.88
862.959	398.01
863.268	377.58
863.577	423.54
863.886	390.35
864.195	413.33
864.504	392.9
864.813	387.79
865.122	364.81
865.43	446.52
865.739	395.45
866.048	369.92
866.356	403.11
866.665	377.58
866.973	372.47
867.282	387.79
867.59	380.13
867.899	369.92
868.207	392.9
868.515	364.81
868.823	372.47
869.132	369.92
869.44	436.31
869.748	426.09
870.056	433.76
870.364	400.56
870.672	390.35
870.98	413.33
871.288	479.72
871.595	441.42
871.903	400.56
872.211	431.2
872.518	456.74
872.826	556.32
873.134	400.56
873.441	395.45
873.749	466.95
874.056	311.19
874.363	472.06
874.671	395.45
874.978	433.76
875.285	433.76
875.592	456.74
875.9	364.81
876.207	459.29
876.514	390.35
876.821	354.6
877.128	403.11
877.435	321.41
877.741	387.79
878.048	420.99
878.355	408.22
878.662	405.67
878.968	441.42
879.275	392.9
879.582	395.45
879.888	418.43
880.195	449.08
880.501	390.35
880.807	334.17
881.114	352.05
881.42	387.79
881.726	408.22
882.032	487.38
882.339	418.43
882.645	461.84
882.951	423.54
883.257	392.9
883.563	428.65
883.869	362.26
884.174	364.81
884.48	405.67
884.786	436.31
885.092	423.54
885.397	375.03
885.703	408.22
886.009	382.69
886.314	428.65
886.62	369.92
886.925	392.9
887.231	423.54
887.536	415.88
887.841	341.83
888.146	410.77
888.452	415.88
888.757	492.48
889.062	438.86
889.367	420.99
889.672	410.77
889.977	454.18
890.282	472.06
890.587	398.01
890.892	441.42
891.196	405.67
891.501	400.56
891.806	431.2
892.11	398.01
892.415	415.88
892.72	428.65
893.024	395.45
893.328	482.27
893.633	408.22
893.937	392.9
894.242	331.62
894.546	428.65
894.85	364.81
895.154	408.22
895.458	415.88
895.762	431.2
896.066	392.9
896.37	326.51
896.674	331.62
896.978	398.01
897.282	400.56
897.586	405.67
897.89	413.33
898.193	380.13
898.497	459.29
898.801	436.31
899.104	403.11
899.408	400.56
899.711	354.6
900.014	372.47
900.318	357.15
900.621	400.56
900.924	385.24
901.228	418.43
901.531	380.13
901.834	403.11
902.137	395.45
902.44	352.05
902.743	341.83
903.046	405.67
903.349	426.09
903.652	392.9
903.955	451.63
904.257	431.2
904.56	382.69
904.863	418.43
905.165	334.17
905.468	431.2
905.77	395.45
906.073	420.99
906.375	408.22
906.678	408.22
906.98	400.56
907.282	382.69
907.584	410.77
907.887	469.5
908.189	398.01
908.491	359.71
908.793	436.31
909.095	375.03
909.397	377.58
909.699	367.37
910.001	390.35
910.302	428.65
910.604	443.97
910.906	413.33
911.208	428.65
911.509	451.63
911.811	423.54
912.112	364.81
912.414	415.88
912.715	352.05
913.017	420.99
913.318	446.52
913.619	449.08
913.92	474.61
914.222	369.92
914.523	461.84
914.824	454.18
915.125	336.73
915.426	395.45
915.727	405.67
916.028	441.42
916.329	385.24
916.63	362.26
916.93	479.72
917.231	382.69
917.532	375.03
917.832	377.58
918.133	446.52
918.434	408.22
918.734	395.45
919.034	392.9
919.335	326.51
919.635	454.18
919.935	459.29
920.236	464.4
920.536	395.45
920.836	372.47
921.136	400.56
921.436	479.72
921.736	431.2
922.036	362.26
922.336	482.27
922.636	380.13
922.936	459.29
923.236	380.13
923.535	400.56
923.835	410.77
924.135	369.92
924.434	459.29
924.734	410.77
925.033	446.52
925.333	395.45
925.632	359.71
925.932	377.58
926.231	400.56
926.53	362.26
926.83	382.69
927.129	472.06
927.428	484.82
927.727	385.24
928.026	405.67
928.325	395.45
928.624	405.67
928.923	441.42
929.222	428.65
929.52	413.33
929.819	428.65
930.118	418.43
930.417	390.35
930.715	418.43
931.014	318.85
931.312	469.5
931.611	372.47
931.909	385.24
932.207	469.5
932.506	354.6
932.804	423.54
933.102	477.16
933.401	392.9
933.699	387.79
933.997	449.08
934.295	410.77
934.593	423.54
934.891	420.99
935.189	408.22
935.487	392.9
935.784	405.67
936.082	400.56
936.38	390.35
936.677	357.15
936.975	344.39
937.273	346.94
937.57	380.13
937.868	431.2
938.165	382.69
938.463	382.69
938.76	377.58
939.057	420.99
939.354	420.99
939.652	415.88
939.949	349.49
940.246	362.26
940.543	375.03
940.84	385.24
941.137	403.11
941.434	400.56
941.731	400.56
942.028	387.79
942.324	382.69
942.621	369.92
942.918	313.75
943.214	436.31
943.511	423.54
943.807	359.71
944.104	410.77
944.4	423.54
944.697	362.26
944.993	426.09
945.29	410.77
945.586	344.39
945.882	395.45
946.178	364.81
946.474	377.58
946.77	375.03
947.066	398.01
947.362	331.62
947.658	398.01
947.954	392.9
948.25	352.05
948.546	372.47
948.842	415.88
949.137	377.58
949.433	426.09
949.729	380.13
950.024	436.31
950.32	413.33
950.615	474.61
950.91	479.72
951.206	426.09
951.501	331.62
951.796	405.67
952.092	339.28
952.387	449.08
952.682	423.54
952.977	344.39
953.272	387.79
953.567	354.6
953.862	382.69
954.157	385.24
954.452	311.19
954.747	408.22
955.041	341.83
955.336	369.92
955.631	474.61
955.925	502.7
956.22	443.97
956.514	405.67
956.809	523.12
957.103	334.17
957.398	364.81
957.692	380.13
957.986	357.15
958.281	405.67
958.575	403.11
958.869	352.05
959.163	349.49
959.457	372.47
959.751	377.58
960.045	390.35
960.339	369.92
960.633	436.31
960.927	380.13
961.221	392.9
961.514	400.56
961.808	385.24
962.102	372.47
962.395	395.45
962.689	415.88
962.982	441.42
963.276	449.08
963.569	400.56
963.862	357.15
964.156	418.43
964.449	364.81
964.742	408.22
965.035	426.09
965.328	454.18
965.622	403.11
965.915	418.43
966.208	392.9
966.5	449.08
966.793	466.95
967.086	415.88
967.379	377.58
967.672	415.88
967.964	392.9
968.257	382.69
968.55	377.58
968.842	382.69
969.135	387.79
969.427	405.67
969.72	385.24
970.012	341.83
970.304	472.06
970.597	449.08
970.889	362.26
971.181	346.94
971.473	395.45
971.765	390.35
972.057	403.11
972.349	395.45
972.641	398.01
972.933	372.47
973.225	405.67
973.517	369.92
973.809	346.94
974.1	418.43
974.392	400.56
974.684	403.11
974.975	364.81
975.267	346.94
975.558	433.76
975.85	354.6
976.141	410.77
976.432	423.54
976.724	433.76
977.015	405.67
977.306	398.01
977.597	380.13
977.888	405.67
978.179	323.96
978.47	362.26
978.761	367.37
979.052	441.42
979.343	326.51
979.634	408.22
979.925	390.35
980.215	403.11
980.506	375.03
980.797	438.86
981.087	362.26
981.378	375.03
981.668	431.2
981.959	418.43
982.249	387.79
982.54	420.99
982.83	408.22
983.12	400.56
983.41	464.4
983.701	372.47
983.991	344.39
984.281	377.58
984.571	436.31
984.861	436.31
985.151	405.67
985.441	403.11
985.73	382.69
986.02	377.58
986.31	398.01
986.6	403.11
986.889	426.09
987.179	410.77
987.469	346.94
987.758	428.65
988.048	380.13
988.337	433.76
988.626	385.24
988.916	418.43
989.205	377.58
989.494	369.92
989.783	405.67
990.073	464.4
990.362	392.9
990.651	403.11
990.94	441.42
991.229	346.94
991.518	395.45
991.806	390.35
992.095	431.2
992.384	446.52
992.673	403.11
992.961	438.86
993.25	375.03
993.539	431.2
993.827	392.9
994.116	405.67
994.404	377.58
994.692	321.41
994.981	344.39
995.269	420.99
995.557	413.33
995.846	382.69
996.134	395.45
996.422	362.26
996.71	426.09
996.998	420.99
997.286	385.24
997.574	403.11
997.862	400.56
998.15	367.37
998.437	369.92
998.725	408.22
999.013	385.24
999.3	400.56
999.588	367.37
999.876	405.67
1000.163	403.11
1000.45	408.22
1000.738	400.56
1001.025	449.08
1001.313	469.5
1001.6	359.71
1001.887	449.08
1002.174	329.07
1002.461	403.11
1002.748	398.01
1003.036	329.07
1003.322	341.83
1003.609	390.35
1003.896	349.49
1004.183	398.01
1004.47	354.6
1004.757	405.67
1005.043	400.56
1005.33	385.24
1005.617	387.79
1005.903	387.79
1006.19	367.37
1006.476	364.81
1006.763	377.58
1007.049	413.33
1007.335	443.97
1007.622	398.01
1007.908	387.79
1008.194	398.01
1008.48	380.13
1008.766	395.45
1009.053	449.08
1009.339	306.09
1009.625	357.15
1009.91	410.77
1010.196	387.79
1010.482	362.26
1010.768	362.26
1011.054	352.05
1011.339	400.56
1011.625	428.65
1011.911	426.09
1012.196	431.2
1012.482	354.6
1012.767	364.81
1013.052	428.65
1013.338	433.76
1013.623	441.42
1013.908	438.86
1014.194	392.9
1014.479	311.19
1014.764	339.28
1015.049	385.24
1015.334	398.01
1015.619	380.13
1015.904	385.24
1016.189	420.99
1016.474	408.22
1016.758	392.9
1017.043	436.31
1017.328	454.18
1017.613	354.6
1017.897	403.11
1018.182	441.42
1018.466	346.94
1018.751	395.45
1019.035	336.73
1019.32	461.84
1019.604	420.99
1019.888	403.11
1020.172	403.11
1020.457	403.11
