Data from measurement_1_FLMS141361__1__14-07-10-134.txt Node

Date: Tue Nov 25 14:07:10 MST 2025
User: kpspe
Spectrometer: FLMS14136
Trigger mode: 0
Integration Time (sec): 1.000000E-1
Scans to average: 1
Electric dark correction enabled: true
Nonlinearity correction enabled: false
Boxcar width: 0
XAxis mode: Wavelengths
Number of Pixels in Spectrum: 2048
>>>>>Begin Spectral Data<<<<<
339.315	-40.22
339.697	-40.22
340.079	-40.22
340.461	-121.92
340.843	-129.58
341.225	-91.28
341.607	-111.71
341.989	-165.33
342.371	-121.92
342.752	-63.2
343.134	-35.11
343.516	-75.96
343.897	-4.47
344.279	-14.68
344.661	41.49
345.042	59.37
345.423	49.15
345.805	110.43
346.186	120.65
346.567	138.52
346.949	164.05
347.33	153.84
347.711	184.48
348.092	225.34
348.473	202.36
348.854	215.12
349.235	250.87
349.616	261.08
349.997	337.68
350.378	312.15
350.758	358.11
351.139	345.34
351.52	381.09
351.9	393.86
352.281	309.6
352.661	296.83
353.042	383.65
353.422	319.81
353.803	462.8
354.183	386.2
354.563	347.9
354.943	462.8
355.324	437.27
355.704	406.63
356.084	383.65
356.464	368.32
356.844	427.05
357.224	450.03
357.603	363.22
357.983	360.66
358.363	429.61
358.743	327.47
359.122	393.86
359.502	396.41
359.882	447.48
360.261	322.36
360.641	322.36
361.02	370.88
361.399	409.18
361.779	358.11
362.158	370.88
362.537	401.52
362.916	350.45
363.296	347.9
363.675	368.32
364.054	386.2
364.433	355.56
364.812	314.7
365.19	327.47
365.569	363.22
365.948	373.43
366.327	353
366.705	317.26
367.084	322.36
367.463	375.98
367.841	375.98
368.22	324.92
368.598	347.9
368.977	360.66
369.355	312.15
369.733	312.15
370.111	353
370.49	358.11
370.868	350.45
371.246	309.6
371.624	289.17
372.002	381.09
372.38	393.86
372.758	365.77
373.136	386.2
373.513	324.92
373.891	350.45
374.269	309.6
374.646	393.86
375.024	404.07
375.402	358.11
375.779	381.09
376.157	314.7
376.534	330.02
376.911	375.98
377.289	404.07
377.666	309.6
378.043	353
378.42	345.34
378.797	322.36
379.175	365.77
379.552	406.63
379.929	340.24
380.305	419.39
380.682	335.13
381.059	485.78
381.436	383.65
381.813	421.95
382.189	373.43
382.566	393.86
382.943	381.09
383.319	314.7
383.696	350.45
384.072	375.98
384.448	421.95
384.825	411.73
385.201	383.65
385.577	421.95
385.953	398.97
386.329	340.24
386.706	319.81
387.082	345.34
387.458	370.88
387.834	378.54
388.209	437.27
388.585	386.2
388.961	398.97
389.337	406.63
389.713	414.29
390.088	363.22
390.464	388.75
390.839	368.32
391.215	347.9
391.59	421.95
391.966	406.63
392.341	424.5
392.716	383.65
393.092	409.18
393.467	370.88
393.842	409.18
394.217	432.16
394.592	396.41
394.967	368.32
395.342	386.2
395.717	368.32
396.092	330.02
396.467	398.97
396.841	332.58
397.216	378.54
397.591	388.75
397.965	432.16
398.34	393.86
398.714	406.63
399.089	383.65
399.463	393.86
399.838	401.52
400.212	396.41
400.586	363.22
400.961	345.34
401.335	345.34
401.709	355.56
402.083	332.58
402.457	360.66
402.831	342.79
403.205	337.68
403.579	383.65
403.953	345.34
404.326	340.24
404.7	416.84
405.074	383.65
405.447	370.88
405.821	347.9
406.195	355.56
406.568	291.72
406.942	427.05
407.315	375.98
407.688	419.39
408.062	342.79
408.435	330.02
408.808	358.11
409.181	393.86
409.554	409.18
409.927	401.52
410.3	391.31
410.673	424.5
411.046	401.52
411.419	342.79
411.792	396.41
412.165	381.09
412.537	360.66
412.91	350.45
413.283	381.09
413.655	358.11
414.028	375.98
414.4	432.16
414.773	396.41
415.145	355.56
415.517	378.54
415.889	393.86
416.262	381.09
416.634	363.22
417.006	378.54
417.378	439.82
417.75	432.16
418.122	360.66
418.494	416.84
418.866	393.86
419.238	347.9
419.609	416.84
419.981	330.02
420.353	347.9
420.725	396.41
421.096	434.71
421.468	450.03
421.839	534.29
422.211	312.15
422.582	378.54
422.953	314.7
423.325	378.54
423.696	381.09
424.067	421.95
424.438	393.86
424.809	332.58
425.18	322.36
425.551	370.88
425.922	324.92
426.293	421.95
426.664	355.56
427.035	386.2
427.406	340.24
427.776	439.82
428.147	478.12
428.518	378.54
428.888	347.9
429.259	375.98
429.629	337.68
429.999	393.86
430.37	419.39
430.74	378.54
431.11	373.43
431.481	383.65
431.851	432.16
432.221	455.14
432.591	424.5
432.961	324.92
433.331	416.84
433.701	314.7
434.071	381.09
434.441	396.41
434.81	475.57
435.18	409.18
435.55	388.75
435.919	386.2
436.289	409.18
436.658	370.88
437.028	347.9
437.397	388.75
437.767	368.32
438.136	434.71
438.505	427.05
438.875	429.61
439.244	429.61
439.613	363.22
439.982	411.73
440.351	378.54
440.72	398.97
441.089	424.5
441.458	381.09
441.827	360.66
442.196	383.65
442.564	460.25
442.933	421.95
443.302	442.37
443.67	427.05
444.039	411.73
444.407	409.18
444.776	411.73
445.144	396.41
445.513	439.82
445.881	432.16
446.249	404.07
446.617	488.33
446.986	470.46
447.354	373.43
447.722	442.37
448.09	370.88
448.458	378.54
448.826	516.42
449.194	427.05
449.561	432.16
449.929	391.31
450.297	378.54
450.665	411.73
451.032	388.75
451.4	437.27
451.767	386.2
452.135	307.04
452.502	350.45
452.87	373.43
453.237	424.5
453.604	439.82
453.971	450.03
454.339	462.8
454.706	416.84
455.073	452.59
455.44	419.39
455.807	434.71
456.174	360.66
456.541	465.35
456.908	324.92
457.274	342.79
457.641	391.31
458.008	386.2
458.374	416.84
458.741	398.97
459.108	421.95
459.474	437.27
459.841	393.86
460.207	398.97
460.573	424.5
460.94	421.95
461.306	414.29
461.672	330.02
462.038	455.14
462.404	437.27
462.771	447.48
463.137	370.88
463.503	360.66
463.868	452.59
464.234	419.39
464.6	444.93
464.966	421.95
465.332	437.27
465.697	467.91
466.063	398.97
466.429	462.8
466.794	391.31
467.16	424.5
467.525	460.25
467.89	475.57
468.256	462.8
468.621	442.37
468.986	375.98
469.351	383.65
469.717	406.63
470.082	488.33
470.447	493.44
470.812	506.21
471.177	447.48
471.542	424.5
471.906	404.07
472.271	278.96
472.636	406.63
473.001	388.75
473.365	386.2
473.73	370.88
474.094	401.52
474.459	414.29
474.823	424.5
475.188	475.57
475.552	401.52
475.917	447.48
476.281	467.91
476.645	299.38
477.009	381.09
477.373	396.41
477.737	383.65
478.101	429.61
478.465	416.84
478.829	432.16
479.193	439.82
479.557	488.33
479.921	419.39
480.284	414.29
480.648	462.8
481.012	444.93
481.375	434.71
481.739	475.57
482.102	411.73
482.466	411.73
482.829	437.27
483.193	396.41
483.556	427.05
483.919	442.37
484.282	421.95
484.645	409.18
485.009	455.14
485.372	409.18
485.735	386.2
486.098	452.59
486.46	450.03
486.823	427.05
487.186	409.18
487.549	450.03
487.912	432.16
488.274	485.78
488.637	444.93
488.999	414.29
489.362	378.54
489.724	427.05
490.087	457.69
490.449	416.84
490.811	401.52
491.174	424.5
491.536	444.93
491.898	404.07
492.26	434.71
492.622	416.84
492.984	396.41
493.346	442.37
493.708	467.91
494.07	447.48
494.432	388.75
494.794	388.75
495.155	432.16
495.517	398.97
495.879	393.86
496.24	465.35
496.602	404.07
496.963	406.63
497.325	495.99
497.686	442.37
498.048	391.31
498.409	375.98
498.77	393.86
499.131	411.73
499.492	421.95
499.854	447.48
500.215	450.03
500.576	442.37
500.937	473.01
501.298	386.2
501.658	429.61
502.019	419.39
502.38	473.01
502.741	478.12
503.101	485.78
503.462	429.61
503.823	383.65
504.183	437.27
504.543	414.29
504.904	401.52
505.264	429.61
505.625	467.91
505.985	444.93
506.345	401.52
506.705	386.2
507.065	368.32
507.426	404.07
507.786	391.31
508.146	370.88
508.505	398.97
508.865	465.35
509.225	437.27
509.585	524.08
509.945	411.73
510.304	363.22
510.664	427.05
511.024	404.07
511.383	401.52
511.743	381.09
512.102	391.31
512.462	414.29
512.821	345.34
513.18	406.63
513.539	350.45
513.899	447.48
514.258	411.73
514.617	439.82
514.976	404.07
515.335	386.2
515.694	424.5
516.053	381.09
516.412	383.65
516.771	416.84
517.129	465.35
517.488	462.8
517.847	386.2
518.205	411.73
518.564	404.07
518.922	447.48
519.281	416.84
519.639	404.07
519.998	416.84
520.356	386.2
520.714	444.93
521.073	383.65
521.431	386.2
521.789	419.39
522.147	414.29
522.505	452.59
522.863	421.95
523.221	404.07
523.579	353
523.937	335.13
524.295	381.09
524.652	381.09
525.01	416.84
525.368	396.41
525.725	398.97
526.083	416.84
526.44	427.05
526.798	439.82
527.155	444.93
527.513	439.82
527.87	409.18
528.227	388.75
528.584	501.1
528.942	391.31
529.299	398.97
529.656	383.65
530.013	409.18
530.37	404.07
530.727	462.8
531.083	490.89
531.44	437.27
531.797	455.14
532.154	467.91
532.511	375.98
532.867	378.54
533.224	393.86
533.58	401.52
533.937	409.18
534.293	398.97
534.65	460.25
535.006	442.37
535.362	396.41
535.718	398.97
536.075	485.78
536.431	460.25
536.787	421.95
537.143	388.75
537.499	424.5
537.855	401.52
538.211	383.65
538.567	386.2
538.923	501.1
539.278	401.52
539.634	396.41
539.99	416.84
540.345	429.61
540.701	424.5
541.056	401.52
541.412	424.5
541.767	460.25
542.123	353
542.478	432.16
542.833	452.59
543.188	437.27
543.544	398.97
543.899	437.27
544.254	498.55
544.609	432.16
544.964	475.57
545.319	424.5
545.674	429.61
546.029	434.71
546.383	391.31
546.738	442.37
547.093	386.2
547.447	480.67
547.802	365.77
548.157	421.95
548.511	483.23
548.866	424.5
549.22	404.07
549.574	353
549.929	457.69
550.283	437.27
550.637	411.73
550.991	370.88
551.345	381.09
551.699	404.07
552.053	409.18
552.407	391.31
552.761	391.31
553.115	483.23
553.469	483.23
553.823	460.25
554.176	375.98
554.53	442.37
554.884	401.52
555.237	544.51
555.591	465.35
555.944	424.5
556.298	411.73
556.651	462.8
557.005	406.63
557.358	375.98
557.711	432.16
558.064	421.95
558.417	355.56
558.771	475.57
559.124	363.22
559.477	406.63
559.83	442.37
560.182	378.54
560.535	437.27
560.888	483.23
561.241	490.89
561.594	452.59
561.946	444.93
562.299	429.61
562.651	401.52
563.004	404.07
563.356	416.84
563.709	386.2
564.061	388.75
564.413	427.05
564.766	360.66
565.118	465.35
565.47	398.97
565.822	414.29
566.174	378.54
566.526	437.27
566.878	427.05
567.23	450.03
567.582	355.56
567.934	414.29
568.286	460.25
568.638	470.46
568.989	460.25
569.341	424.5
569.693	467.91
570.044	429.61
570.396	429.61
570.747	439.82
571.098	427.05
571.45	424.5
571.801	373.43
572.152	409.18
572.504	404.07
572.855	414.29
573.206	375.98
573.557	508.76
573.908	414.29
574.259	375.98
574.61	452.59
574.961	460.25
575.311	409.18
575.662	360.66
576.013	388.75
576.364	427.05
576.714	526.63
577.065	495.99
577.415	416.84
577.766	470.46
578.116	444.93
578.467	355.56
578.817	406.63
579.167	434.71
579.518	424.5
579.868	498.55
580.218	450.03
580.568	409.18
580.918	355.56
581.268	442.37
581.618	439.82
581.968	439.82
582.318	455.14
582.668	404.07
583.017	478.12
583.367	490.89
583.717	450.03
584.066	406.63
584.416	345.34
584.765	414.29
585.115	429.61
585.464	404.07
585.814	419.39
586.163	439.82
586.512	416.84
586.862	347.9
587.211	360.66
587.56	368.32
587.909	393.86
588.258	363.22
588.607	490.89
588.956	452.59
589.305	388.75
589.654	406.63
590.002	447.48
590.351	414.29
590.7	355.56
591.048	444.93
591.397	506.21
591.746	439.82
592.094	365.77
592.443	414.29
592.791	457.69
593.139	432.16
593.488	465.35
593.836	409.18
594.184	432.16
594.532	429.61
594.88	432.16
595.228	437.27
595.576	414.29
595.924	457.69
596.272	419.39
596.62	406.63
596.968	495.99
597.316	396.41
597.664	434.71
598.011	373.43
598.359	439.82
598.706	421.95
599.054	378.54
599.402	355.56
599.749	411.73
600.096	419.39
600.444	396.41
600.791	465.35
601.138	460.25
601.485	427.05
601.833	439.82
602.18	506.21
602.527	391.31
602.874	404.07
603.221	393.86
603.568	404.07
603.914	437.27
604.261	432.16
604.608	432.16
604.955	447.48
605.301	473.01
605.648	409.18
605.995	416.84
606.341	416.84
606.688	424.5
607.034	365.77
607.38	398.97
607.727	470.46
608.073	378.54
608.419	437.27
608.765	368.32
609.112	429.61
609.458	434.71
609.804	363.22
610.15	393.86
610.496	373.43
610.842	450.03
611.187	416.84
611.533	411.73
611.879	416.84
612.225	457.69
612.57	490.89
612.916	460.25
613.261	442.37
613.607	460.25
613.952	434.71
614.298	424.5
614.643	429.61
614.989	345.34
615.334	414.29
615.679	406.63
616.024	396.41
616.369	398.97
616.714	388.75
617.059	391.31
617.404	455.14
617.749	383.65
618.094	368.32
618.439	434.71
618.784	421.95
619.129	396.41
619.473	437.27
619.818	378.54
620.163	401.52
620.507	416.84
620.852	342.79
621.196	419.39
621.54	373.43
621.885	345.34
622.229	337.68
622.573	401.52
622.918	419.39
623.262	447.48
623.606	470.46
623.95	424.5
624.294	406.63
624.638	444.93
624.982	383.65
625.326	342.79
625.67	330.02
626.013	378.54
626.357	345.34
626.701	365.77
627.044	411.73
627.388	401.52
627.731	444.93
628.075	409.18
628.418	353
628.762	442.37
629.105	370.88
629.448	391.31
629.792	419.39
630.135	498.55
630.478	447.48
630.821	406.63
631.164	381.09
631.507	434.71
631.85	439.82
632.193	383.65
632.536	409.18
632.879	473.01
633.221	365.77
633.564	485.78
633.907	421.95
634.249	414.29
634.592	350.45
634.935	373.43
635.277	401.52
635.619	473.01
635.962	416.84
636.304	396.41
636.646	381.09
636.989	335.13
637.331	421.95
637.673	383.65
638.015	404.07
638.357	375.98
638.699	434.71
639.041	381.09
639.383	447.48
639.725	427.05
640.067	455.14
640.408	442.37
640.75	391.31
641.092	393.86
641.433	368.32
641.775	411.73
642.116	427.05
642.458	396.41
642.799	396.41
643.141	388.75
643.482	411.73
643.823	444.93
644.164	398.97
644.506	501.1
644.847	424.5
645.188	416.84
645.529	452.59
645.87	414.29
646.211	398.97
646.552	427.05
646.893	398.97
647.233	432.16
647.574	386.2
647.915	465.35
648.255	414.29
648.596	368.32
648.937	442.37
649.277	378.54
649.618	432.16
649.958	478.12
650.298	342.79
650.639	406.63
650.979	363.22
651.319	370.88
651.659	460.25
651.999	309.6
652.339	409.18
652.679	406.63
653.019	391.31
653.359	450.03
653.699	416.84
654.039	363.22
654.379	414.29
654.719	432.16
655.058	368.32
655.398	444.93
655.737	498.55
656.077	355.56
656.416	447.48
656.756	434.71
657.095	401.52
657.435	424.5
657.774	393.86
658.113	363.22
658.452	360.66
658.792	375.98
659.131	355.56
659.47	335.13
659.809	421.95
660.148	375.98
660.487	439.82
660.826	419.39
661.164	450.03
661.503	386.2
661.842	404.07
662.181	424.5
662.519	373.43
662.858	388.75
663.196	393.86
663.535	416.84
663.873	411.73
664.212	401.52
664.55	383.65
664.888	350.45
665.226	368.32
665.565	406.63
665.903	621.11
666.241	421.95
666.579	421.95
666.917	373.43
667.255	393.86
667.593	419.39
667.931	406.63
668.268	421.95
668.606	447.48
668.944	396.41
669.282	312.15
669.619	312.15
669.957	350.45
670.294	383.65
670.632	358.11
670.969	391.31
671.307	411.73
671.644	437.27
671.981	381.09
672.318	409.18
672.656	432.16
672.993	340.24
673.33	353
673.667	340.24
674.004	465.35
674.341	442.37
674.678	375.98
675.015	391.31
675.351	421.95
675.688	437.27
676.025	406.63
676.362	378.54
676.698	396.41
677.035	432.16
677.371	404.07
677.708	409.18
678.044	393.86
678.38	337.68
678.717	365.77
679.053	427.05
679.389	409.18
679.725	442.37
680.062	414.29
680.398	419.39
680.734	373.43
681.07	419.39
681.406	375.98
681.742	386.2
682.077	373.43
682.413	406.63
682.749	398.97
683.085	368.32
683.42	414.29
683.756	462.8
684.091	409.18
684.427	383.65
684.762	363.22
685.098	375.98
685.433	396.41
685.768	332.58
686.104	375.98
686.439	432.16
686.774	398.97
687.109	383.65
687.444	442.37
687.779	388.75
688.114	386.2
688.449	363.22
688.784	406.63
689.119	432.16
689.454	363.22
689.789	398.97
690.123	467.91
690.458	373.43
690.792	350.45
691.127	401.52
691.461	347.9
691.796	419.39
692.13	406.63
692.465	416.84
692.799	421.95
693.133	388.75
693.467	450.03
693.802	414.29
694.136	383.65
694.47	411.73
694.804	429.61
695.138	450.03
695.472	432.16
695.806	314.7
696.139	375.98
696.473	434.71
696.807	460.25
697.141	447.48
697.474	363.22
697.808	419.39
698.141	391.31
698.475	383.65
698.808	393.86
699.142	370.88
699.475	383.65
699.808	365.77
700.142	381.09
700.475	416.84
700.808	447.48
701.141	457.69
701.474	455.14
701.807	391.31
702.14	373.43
702.473	434.71
702.806	409.18
703.139	427.05
703.472	416.84
703.804	335.13
704.137	406.63
704.47	419.39
704.802	409.18
705.135	419.39
705.467	393.86
705.8	439.82
706.132	363.22
706.464	419.39
706.797	450.03
707.129	360.66
707.461	398.97
707.793	473.01
708.125	460.25
708.457	393.86
708.789	381.09
709.121	434.71
709.453	442.37
709.785	419.39
710.117	381.09
710.449	401.52
710.781	421.95
711.112	478.12
711.444	388.75
711.775	396.41
712.107	386.2
712.438	437.27
712.77	404.07
713.101	450.03
713.433	404.07
713.764	455.14
714.095	419.39
714.426	406.63
714.757	378.54
715.089	483.23
715.42	401.52
715.751	434.71
716.082	429.61
716.412	434.71
716.743	437.27
717.074	401.52
717.405	396.41
717.736	429.61
718.066	370.88
718.397	332.58
718.727	401.52
719.058	404.07
719.388	398.97
719.719	416.84
720.049	401.52
720.38	457.69
720.71	421.95
721.04	439.82
721.37	378.54
721.7	381.09
722.031	434.71
722.361	411.73
722.691	424.5
723.021	383.65
723.35	340.24
723.68	375.98
724.01	421.95
724.34	411.73
724.67	442.37
724.999	375.98
725.329	378.54
725.658	421.95
725.988	350.45
726.317	375.98
726.647	414.29
726.976	424.5
727.306	467.91
727.635	386.2
727.964	444.93
728.293	411.73
728.622	365.77
728.952	388.75
729.281	434.71
729.61	483.23
729.939	437.27
730.267	429.61
730.596	419.39
730.925	442.37
731.254	427.05
731.583	378.54
731.911	353
732.24	404.07
732.568	330.02
732.897	317.26
733.225	444.93
733.554	427.05
733.882	416.84
734.21	447.48
734.539	409.18
734.867	391.31
735.195	368.32
735.523	353
735.851	378.54
736.179	373.43
736.507	427.05
736.835	434.71
737.163	386.2
737.491	465.35
737.819	319.81
738.147	404.07
738.474	365.77
738.802	398.97
739.13	427.05
739.457	432.16
739.785	421.95
740.112	404.07
740.44	429.61
740.767	373.43
741.094	416.84
741.422	411.73
741.749	365.77
742.076	332.58
742.403	427.05
742.73	455.14
743.057	493.44
743.384	383.65
743.711	421.95
744.038	393.86
744.365	432.16
744.692	421.95
745.018	437.27
745.345	370.88
745.672	421.95
745.998	391.31
746.325	350.45
746.651	363.22
746.978	330.02
747.304	319.81
747.631	391.31
747.957	457.69
748.283	391.31
748.61	411.73
748.936	411.73
749.262	421.95
749.588	444.93
749.914	421.95
750.24	396.41
750.566	442.37
750.892	406.63
751.218	365.77
751.543	427.05
751.869	398.97
752.195	370.88
752.521	409.18
752.846	368.32
753.172	404.07
753.497	501.1
753.823	375.98
754.148	398.97
754.473	429.61
754.799	375.98
755.124	434.71
755.449	347.9
755.774	409.18
756.1	444.93
756.425	368.32
756.75	375.98
757.075	419.39
757.4	424.5
757.724	427.05
758.049	404.07
758.374	429.61
758.699	373.43
759.024	406.63
759.348	383.65
759.673	386.2
759.997	398.97
760.322	437.27
760.646	460.25
760.971	447.48
761.295	444.93
761.619	521.53
761.944	419.39
762.268	465.35
762.592	409.18
762.916	375.98
763.24	429.61
763.564	378.54
763.888	539.4
764.212	506.21
764.536	383.65
764.86	429.61
765.184	363.22
765.508	393.86
765.831	401.52
766.155	575.15
766.478	455.14
766.802	442.37
767.126	457.69
767.449	452.59
767.772	416.84
768.096	447.48
768.419	442.37
768.742	429.61
769.066	365.77
769.389	409.18
769.712	419.39
770.035	437.27
770.358	455.14
770.681	480.67
771.004	541.95
771.327	455.14
771.65	444.93
771.972	518.97
772.295	521.53
772.618	511.31
772.941	513.87
773.263	600.68
773.586	582.81
773.908	613.45
774.231	598.13
774.553	692.6
774.875	730.9
775.198	715.58
775.52	817.72
775.842	907.09
776.164	930.07
776.487	953.05
776.809	1073.06
777.131	1093.48
777.453	1159.87
777.775	1256.9
778.096	1366.7
778.418	1491.81
778.74	1731.83
779.062	1979.51
779.384	2334.43
779.705	2334.43
780.027	2610.19
780.348	2806.8
780.67	3166.83
780.991	3332.8
781.313	3618.77
781.634	3664.74
781.955	3427.27
782.277	3355.78
782.598	3429.83
782.919	3782.19
783.24	4188.18
783.561	4507.35
783.882	4553.31
784.203	4852.06
784.524	5166.12
784.845	5260.6
785.166	5942.35
785.487	6654.74
785.807	7073.5
786.128	7446.29
786.449	7839.51
786.769	7977.39
787.09	7775.67
787.41	7796.1
787.731	8013.14
788.051	8526.37
788.372	8820.01
788.692	9527.29
789.012	11171.67
789.332	12336.01
789.653	13482.47
789.973	13980.38
790.293	14662.13
790.613	15203.45
790.933	16204.38
791.253	16873.36
791.573	16868.25
791.893	15931.16
792.212	15972.02
792.532	15589.01
792.852	14508.93
793.171	14388.92
793.491	14851.08
793.811	15663.06
794.13	17018.9
794.45	19567.17
794.769	21985.22
795.088	25876.57
795.408	27574.57
795.727	30429.24
796.046	28690.39
796.365	28049.5
796.684	27564.35
797.004	28496.34
797.323	30143.27
797.642	31974.04
797.96	32676.22
798.279	32249.8
798.598	30355.2
798.917	30010.49
799.236	29127.02
799.554	30618.19
799.873	32625.15
800.192	33276.26
800.51	35321.52
800.829	37126.75
801.147	37295.28
801.466	35530.89
801.784	36064.55
802.102	35673.88
802.421	35553.87
802.739	35112.14
803.057	35906.24
803.375	38347.27
803.693	38112.36
804.011	38148.11
804.329	38025.54
804.647	38487.71
804.965	39457.99
805.283	41730.5
805.601	44802.21
805.918	47074.72
806.236	46106.99
806.554	46347
806.871	44439.63
807.189	43293.16
807.507	42024.13
807.824	40714.25
808.141	39858.87
808.459	39399.26
808.776	40313.37
809.093	39345.64
809.411	39248.61
809.728	38053.63
810.045	37456.14
810.362	38602.61
810.679	42562.9
810.996	41922
811.313	40441.04
811.63	42169.68
811.947	41623.25
812.264	39432.45
812.58	38737.94
812.897	39784.82
813.214	38122.57
813.53	38252.79
813.847	41344.94
814.163	44924.77
814.48	45708.66
814.796	46382.75
815.113	46433.82
815.429	44225.15
815.745	41929.66
816.061	38737.94
816.378	34116.32
816.694	32313.64
817.01	30365.41
817.326	29121.91
817.642	25611.02
817.958	24275.6
818.274	22878.91
818.59	21178.36
818.905	18014.72
819.221	17264.03
819.537	17179.77
819.852	16117.56
820.168	16089.47
820.484	16541.42
820.799	16538.87
821.115	15382.19
821.43	14105.5
821.745	13168.41
822.061	11661.92
822.376	10584.39
822.691	9672.83
823.006	9330.68
823.322	8276.14
823.637	7829.3
823.952	7402.88
824.267	6353.44
824.582	5569.56
824.897	4910.78
825.211	4435.86
825.526	4167.75
825.841	4014.55
826.156	3802.62
826.47	3886.88
826.785	3644.31
827.1	3708.14
827.414	3600.9
827.729	3353.22
828.043	3189.81
828.357	2834.89
828.672	2533.59
828.986	2377.83
829.3	2260.38
829.614	2096.96
829.929	2148.03
830.243	1951.42
830.557	1772.68
830.871	1719.06
831.185	1708.85
831.499	1765.02
831.812	1869.71
832.126	1708.85
832.44	1759.92
832.754	1611.82
833.067	1369.25
833.381	1313.07
833.695	1233.92
834.008	1218.6
834.322	1154.77
834.635	1016.88
834.948	1034.76
835.262	930.07
835.575	820.27
835.888	873.89
836.201	856.02
836.515	850.91
836.828	822.83
837.141	830.49
837.454	784.53
837.767	827.93
838.08	820.27
838.392	758.99
838.705	687.5
839.018	684.94
839.331	638.98
839.643	559.83
839.956	503.65
840.269	518.97
840.581	480.67
840.894	462.8
841.206	495.99
841.519	595.58
841.831	562.38
842.143	552.17
842.455	508.76
842.768	498.55
843.08	478.12
843.392	490.89
843.704	450.03
844.016	506.21
844.328	485.78
844.64	506.21
844.952	470.46
845.263	414.29
845.575	432.16
845.887	483.23
846.199	447.48
846.51	465.35
846.822	432.16
847.133	370.88
847.445	335.13
847.756	419.39
848.068	442.37
848.379	360.66
848.69	330.02
849.002	393.86
849.313	383.65
849.624	386.2
849.935	375.98
850.246	427.05
850.557	386.2
850.868	411.73
851.179	414.29
851.49	434.71
851.801	393.86
852.112	368.32
852.422	406.63
852.733	493.44
853.044	381.09
853.354	365.77
853.665	378.54
853.975	322.36
854.286	350.45
854.596	411.73
854.906	378.54
855.217	373.43
855.527	391.31
855.837	406.63
856.147	386.2
856.458	414.29
856.768	452.59
857.078	391.31
857.388	429.61
857.698	383.65
858.007	289.17
858.317	421.95
858.627	416.84
858.937	414.29
859.246	350.45
859.556	396.41
859.866	360.66
860.175	388.75
860.485	452.59
860.794	396.41
861.104	434.71
861.413	421.95
861.722	424.5
862.032	396.41
862.341	398.97
862.65	396.41
862.959	381.09
863.268	478.12
863.577	363.22
863.886	444.93
864.195	414.29
864.504	375.98
864.813	378.54
865.122	401.52
865.43	411.73
865.739	375.98
866.048	419.39
866.356	439.82
866.665	447.48
866.973	401.52
867.282	404.07
867.59	353
867.899	404.07
868.207	337.68
868.515	381.09
868.823	381.09
869.132	411.73
869.44	360.66
869.748	404.07
870.056	375.98
870.364	421.95
870.672	386.2
870.98	421.95
871.288	401.52
871.595	353
871.903	375.98
872.211	383.65
872.518	406.63
872.826	473.01
873.134	391.31
873.441	419.39
873.749	340.24
874.056	332.58
874.363	381.09
874.671	396.41
874.978	373.43
875.285	375.98
875.592	355.56
875.9	381.09
876.207	419.39
876.514	416.84
876.821	414.29
877.128	368.32
877.435	421.95
877.741	383.65
878.048	358.11
878.355	381.09
878.662	373.43
878.968	355.56
879.275	370.88
879.582	414.29
879.888	416.84
880.195	406.63
880.501	398.97
880.807	416.84
881.114	340.24
881.42	383.65
881.726	337.68
882.032	393.86
882.339	409.18
882.645	386.2
882.951	406.63
883.257	429.61
883.563	335.13
883.869	358.11
884.174	475.57
884.48	419.39
884.786	398.97
885.092	398.97
885.397	429.61
885.703	416.84
886.009	368.32
886.314	388.75
886.62	358.11
886.925	404.07
887.231	434.71
887.536	501.1
887.841	404.07
888.146	404.07
888.452	386.2
888.757	437.27
889.062	414.29
889.367	447.48
889.672	421.95
889.977	429.61
890.282	378.54
890.587	447.48
890.892	434.71
891.196	396.41
891.501	358.11
891.806	383.65
892.11	358.11
892.415	355.56
892.72	450.03
893.024	358.11
893.328	437.27
893.633	373.43
893.937	353
894.242	409.18
894.546	378.54
894.85	378.54
895.154	386.2
895.458	360.66
895.762	337.68
896.066	429.61
896.37	404.07
896.674	414.29
896.978	396.41
897.282	455.14
897.586	424.5
897.89	396.41
898.193	406.63
898.497	388.75
898.801	324.92
899.104	416.84
899.408	424.5
899.711	388.75
900.014	409.18
900.318	353
900.621	373.43
900.924	406.63
901.228	404.07
901.531	383.65
901.834	427.05
902.137	391.31
902.44	419.39
902.743	396.41
903.046	386.2
903.349	404.07
903.652	335.13
903.955	358.11
904.257	388.75
904.56	358.11
904.863	370.88
905.165	434.71
905.468	398.97
905.77	347.9
906.073	434.71
906.375	416.84
906.678	355.56
906.98	460.25
907.282	465.35
907.584	406.63
907.887	419.39
908.189	398.97
908.491	439.82
908.793	355.56
909.095	363.22
909.397	398.97
909.699	342.79
910.001	383.65
910.302	388.75
910.604	365.77
910.906	424.5
911.208	375.98
911.509	421.95
911.811	434.71
912.112	398.97
912.414	391.31
912.715	358.11
913.017	386.2
913.318	437.27
913.619	404.07
913.92	381.09
914.222	439.82
914.523	409.18
914.824	434.71
915.125	437.27
915.426	375.98
915.727	363.22
916.028	368.32
916.329	401.52
916.63	378.54
916.93	450.03
917.231	442.37
917.532	429.61
917.832	447.48
918.133	455.14
918.434	378.54
918.734	396.41
919.034	378.54
919.335	373.43
919.635	406.63
919.935	383.65
920.236	475.57
920.536	373.43
920.836	406.63
921.136	373.43
921.436	447.48
921.736	324.92
922.036	345.34
922.336	439.82
922.636	375.98
922.936	465.35
923.236	414.29
923.535	347.9
923.835	388.75
924.135	409.18
924.434	386.2
924.734	396.41
925.033	358.11
925.333	368.32
925.632	414.29
925.932	363.22
926.231	368.32
926.53	393.86
926.83	388.75
927.129	411.73
927.428	370.88
927.727	378.54
928.026	350.45
928.325	450.03
928.624	350.45
928.923	396.41
929.222	460.25
929.52	340.24
929.819	404.07
930.118	375.98
930.417	383.65
930.715	363.22
931.014	355.56
931.312	457.69
931.611	439.82
931.909	375.98
932.207	421.95
932.506	404.07
932.804	398.97
933.102	460.25
933.401	424.5
933.699	462.8
933.997	447.48
934.295	439.82
934.593	388.75
934.891	432.16
935.189	421.95
935.487	332.58
935.784	460.25
936.082	419.39
936.38	391.31
936.677	335.13
936.975	396.41
937.273	439.82
937.57	378.54
937.868	442.37
938.165	363.22
938.463	450.03
938.76	404.07
939.057	383.65
939.354	396.41
939.652	391.31
939.949	368.32
940.246	503.65
940.543	355.56
940.84	373.43
941.137	350.45
941.434	424.5
941.731	421.95
942.028	332.58
942.324	411.73
942.621	401.52
942.918	335.13
943.214	396.41
943.511	355.56
943.807	432.16
944.104	427.05
944.4	424.5
944.697	373.43
944.993	398.97
945.29	375.98
945.586	429.61
945.882	375.98
946.178	416.84
946.474	434.71
946.77	404.07
947.066	414.29
947.362	393.86
947.658	398.97
947.954	391.31
948.25	406.63
948.546	416.84
948.842	365.77
949.137	358.11
949.433	370.88
949.729	281.51
950.024	404.07
950.32	424.5
950.615	439.82
950.91	381.09
951.206	386.2
951.501	416.84
951.796	442.37
952.092	414.29
952.387	355.56
952.682	490.89
952.977	434.71
953.272	452.59
953.567	391.31
953.862	460.25
954.157	414.29
954.452	386.2
954.747	360.66
955.041	416.84
955.336	322.36
955.631	437.27
955.925	383.65
956.22	421.95
956.514	383.65
956.809	386.2
957.103	393.86
957.398	406.63
957.692	360.66
957.986	335.13
958.281	450.03
958.575	411.73
958.869	398.97
959.163	411.73
959.457	409.18
959.751	342.79
960.045	411.73
960.339	414.29
960.633	416.84
960.927	506.21
961.221	350.45
961.514	432.16
961.808	330.02
962.102	424.5
962.395	381.09
962.689	427.05
962.982	391.31
963.276	350.45
963.569	355.56
963.862	442.37
964.156	393.86
964.449	350.45
964.742	365.77
965.035	388.75
965.328	355.56
965.622	432.16
965.915	340.24
966.208	383.65
966.5	358.11
966.793	383.65
967.086	421.95
967.379	375.98
967.672	457.69
967.964	373.43
968.257	345.34
968.55	416.84
968.842	419.39
969.135	363.22
969.427	365.77
969.72	388.75
970.012	368.32
970.304	450.03
970.597	365.77
970.889	353
971.181	404.07
971.473	414.29
971.765	322.36
972.057	404.07
972.349	381.09
972.641	432.16
972.933	350.45
973.225	427.05
973.517	355.56
973.809	437.27
974.1	411.73
974.392	365.77
974.684	347.9
974.975	286.62
975.267	424.5
975.558	411.73
975.85	368.32
976.141	358.11
976.432	332.58
976.724	355.56
977.015	375.98
977.306	332.58
977.597	404.07
977.888	340.24
978.179	358.11
978.47	358.11
978.761	427.05
979.052	375.98
979.343	375.98
979.634	342.79
979.925	393.86
980.215	353
980.506	383.65
980.797	378.54
981.087	437.27
981.378	401.52
981.668	391.31
981.959	411.73
982.249	419.39
982.54	373.43
982.83	355.56
983.12	437.27
983.41	447.48
983.701	358.11
983.991	360.66
984.281	363.22
984.571	342.79
984.861	373.43
985.151	393.86
985.441	396.41
985.73	406.63
986.02	381.09
986.31	350.45
986.6	442.37
986.889	388.75
987.179	353
987.469	401.52
987.758	355.56
988.048	360.66
988.337	424.5
988.626	391.31
988.916	396.41
989.205	373.43
989.494	335.13
989.783	401.52
990.073	335.13
990.362	393.86
990.651	360.66
990.94	404.07
991.229	396.41
991.518	409.18
991.806	381.09
992.095	411.73
992.384	355.56
992.673	383.65
992.961	434.71
993.25	360.66
993.539	427.05
993.827	409.18
994.116	437.27
994.404	365.77
994.692	386.2
994.981	424.5
995.269	404.07
995.557	388.75
995.846	353
996.134	301.94
996.422	442.37
996.71	370.88
996.998	388.75
997.286	442.37
997.574	381.09
997.862	391.31
998.15	355.56
998.437	414.29
998.725	324.92
999.013	375.98
999.3	355.56
999.588	342.79
999.876	401.52
1000.163	301.94
1000.45	393.86
1000.738	419.39
1001.025	314.7
1001.313	350.45
1001.6	319.81
1001.887	375.98
1002.174	358.11
1002.461	378.54
1002.748	452.59
1003.036	355.56
1003.322	414.29
1003.609	388.75
1003.896	358.11
1004.183	391.31
1004.47	434.71
1004.757	365.77
1005.043	404.07
1005.33	368.32
1005.617	432.16
1005.903	421.95
1006.19	312.15
1006.476	319.81
1006.763	429.61
1007.049	493.44
1007.335	442.37
1007.622	416.84
1007.908	411.73
1008.194	337.68
1008.48	360.66
1008.766	319.81
1009.053	312.15
1009.339	345.34
1009.625	322.36
1009.91	381.09
1010.196	386.2
1010.482	406.63
1010.768	383.65
1011.054	345.34
1011.339	355.56
1011.625	404.07
1011.911	404.07
1012.196	406.63
1012.482	373.43
1012.767	378.54
1013.052	411.73
1013.338	365.77
1013.623	490.89
1013.908	427.05
1014.194	439.82
1014.479	391.31
1014.764	414.29
1015.049	307.04
1015.334	414.29
1015.619	393.86
1015.904	396.41
1016.189	427.05
1016.474	388.75
1016.758	411.73
1017.043	355.56
1017.328	388.75
1017.613	368.32
1017.897	398.97
1018.182	391.31
1018.466	398.97
1018.751	388.75
1019.035	373.43
1019.32	353
1019.604	350.45
1019.888	368.32
1020.172	368.32
1020.457	368.32
