Data from 2025-12-03_xpw_interference_micrometer_634_reference_FLMS141361__168__418.txt Node

Date: Wed Dec 03 15:51:29 MST 2025
User: james
Spectrometer: FLMS14136
Trigger mode: 0
Integration Time (sec): 1.000000E-1
Scans to average: 1
Electric dark correction enabled: true
Nonlinearity correction enabled: false
Boxcar width: 0
XAxis mode: Wavelengths
Number of Pixels in Spectrum: 2048
>>>>>Begin Spectral Data<<<<<
339.315	-22.66
339.697	-22.66
340.079	-22.66
340.461	-137.56
340.843	-83.94
341.225	-145.22
341.607	-66.07
341.989	-150.33
342.371	-127.35
342.752	-32.87
343.134	-53.3
343.516	-25.21
343.897	15.64
344.279	-20.11
344.661	23.3
345.042	-2.23
345.423	51.39
345.805	61.6
346.186	166.29
346.567	133.09
346.949	171.4
347.33	150.97
347.711	140.75
348.092	281.19
348.473	166.29
348.854	242.89
349.235	273.53
349.616	319.49
349.997	352.69
350.378	286.3
350.758	304.17
351.139	314.38
351.52	378.22
351.9	383.33
352.281	365.45
352.661	299.06
353.042	390.99
353.422	355.24
353.803	362.9
354.183	406.31
354.563	429.29
354.943	413.97
355.324	370.56
355.704	429.29
356.084	431.84
356.464	345.03
356.844	449.71
357.224	383.33
357.603	345.03
357.983	403.75
358.363	447.16
358.743	360.35
359.122	368.01
359.502	345.03
359.882	393.54
360.261	355.24
360.641	413.97
361.02	355.24
361.399	350.13
361.779	332.26
362.158	380.77
362.537	419.07
362.916	411.41
363.296	342.47
363.675	388.43
364.054	362.9
364.433	370.56
364.812	398.65
365.19	393.54
365.569	401.2
365.948	393.54
366.327	398.65
366.705	324.6
367.084	316.94
367.463	347.58
367.841	311.83
368.22	329.7
368.598	401.2
368.977	467.59
369.355	416.52
369.733	378.22
370.111	393.54
370.49	347.58
370.868	396.09
371.246	350.13
371.624	339.92
372.002	393.54
372.38	452.27
372.758	329.7
373.136	332.26
373.513	393.54
373.891	383.33
374.269	347.58
374.646	378.22
375.024	316.94
375.402	327.15
375.779	403.75
376.157	324.6
376.534	426.73
376.911	355.24
377.289	365.45
377.666	388.43
378.043	416.52
378.42	396.09
378.797	401.2
379.175	299.06
379.552	442.05
379.929	385.88
380.305	416.52
380.682	362.9
381.059	362.9
381.436	424.18
381.813	390.99
382.189	339.92
382.566	378.22
382.943	388.43
383.319	398.65
383.696	373.11
384.072	398.65
384.448	360.35
384.825	401.2
385.201	293.96
385.577	362.9
385.953	319.49
386.329	383.33
386.706	332.26
387.082	334.81
387.458	388.43
387.834	419.07
388.209	357.79
388.585	316.94
388.961	431.84
389.337	406.31
389.713	314.38
390.088	319.49
390.464	401.2
390.839	419.07
391.215	396.09
391.59	385.88
391.966	357.79
392.341	413.97
392.716	365.45
393.092	360.35
393.467	339.92
393.842	462.48
394.217	413.97
394.592	345.03
394.967	393.54
395.342	347.58
395.717	357.79
396.092	429.29
396.467	370.56
396.841	383.33
397.216	304.17
397.591	380.77
397.965	360.35
398.34	362.9
398.714	368.01
399.089	360.35
399.463	388.43
399.838	398.65
400.212	434.39
400.586	324.6
400.961	373.11
401.335	406.31
401.709	401.2
402.083	398.65
402.457	411.41
402.831	408.86
403.205	350.13
403.579	357.79
403.953	411.41
404.326	388.43
404.7	426.73
405.074	398.65
405.447	329.7
405.821	434.39
406.195	380.77
406.568	426.73
406.942	426.73
407.315	444.61
407.688	347.58
408.062	362.9
408.435	380.77
408.808	360.35
409.181	388.43
409.554	334.81
409.927	419.07
410.3	357.79
410.673	337.37
411.046	345.03
411.419	396.09
411.792	447.16
412.165	396.09
412.537	416.52
412.91	370.56
413.283	436.95
413.655	416.52
414.028	365.45
414.4	365.45
414.773	398.65
415.145	447.16
415.517	390.99
415.889	411.41
416.262	396.09
416.634	380.77
417.006	375.67
417.378	347.58
417.75	388.43
418.122	385.88
418.494	413.97
418.866	360.35
419.238	421.63
419.609	431.84
419.981	380.77
420.353	393.54
420.725	403.75
421.096	480.35
421.468	362.9
421.839	393.54
422.211	408.86
422.582	362.9
422.953	350.13
423.325	342.47
423.696	337.37
424.067	355.24
424.438	393.54
424.809	383.33
425.18	357.79
425.551	452.27
425.922	406.31
426.293	424.18
426.664	337.37
427.035	457.37
427.406	378.22
427.776	380.77
428.147	424.18
428.518	421.63
428.888	411.41
429.259	375.67
429.629	393.54
429.999	434.39
430.37	393.54
430.74	434.39
431.11	380.77
431.481	419.07
431.851	398.65
432.221	398.65
432.591	403.75
432.961	388.43
433.331	431.84
433.701	452.27
434.071	436.95
434.441	357.79
434.81	426.73
435.18	352.69
435.55	408.86
435.919	324.6
436.289	406.31
436.658	498.23
437.028	393.54
437.397	396.09
437.767	421.63
438.136	360.35
438.505	406.31
438.875	424.18
439.244	442.05
439.613	398.65
439.982	419.07
440.351	396.09
440.72	459.93
441.089	454.82
441.458	426.73
441.827	442.05
442.196	442.05
442.564	539.08
442.933	419.07
443.302	385.88
443.67	373.11
444.039	352.69
444.407	365.45
444.776	401.2
445.144	365.45
445.513	373.11
445.881	408.86
446.249	380.77
446.617	383.33
446.986	431.84
447.354	434.39
447.722	401.2
448.09	357.79
448.458	419.07
448.826	413.97
449.194	408.86
449.561	393.54
449.929	365.45
450.297	329.7
450.665	444.61
451.032	365.45
451.4	419.07
451.767	416.52
452.135	388.43
452.502	444.61
452.87	442.05
453.237	457.37
453.604	375.67
453.971	477.8
454.339	316.94
454.706	413.97
455.073	467.59
455.44	421.63
455.807	421.63
456.174	375.67
456.541	357.79
456.908	390.99
457.274	362.9
457.641	337.37
458.008	375.67
458.374	416.52
458.741	403.75
459.108	444.61
459.474	467.59
459.841	406.31
460.207	472.69
460.573	378.22
460.94	419.07
461.306	370.56
461.672	436.95
462.038	470.14
462.404	411.41
462.771	396.09
463.137	465.03
463.503	436.95
463.868	421.63
464.234	383.33
464.6	396.09
464.966	454.82
465.332	406.31
465.697	352.69
466.063	429.29
466.429	385.88
466.794	429.29
467.16	375.67
467.525	373.11
467.89	396.09
468.256	482.91
468.621	401.2
468.986	411.41
469.351	383.33
469.717	431.84
470.082	465.03
470.447	373.11
470.812	413.97
471.177	419.07
471.542	459.93
471.906	398.65
472.271	362.9
472.636	352.69
473.001	329.7
473.365	324.6
473.73	426.73
474.094	429.29
474.459	465.03
474.823	490.57
475.188	472.69
475.552	426.73
475.917	370.56
476.281	429.29
476.645	482.91
477.009	398.65
477.373	380.77
477.737	413.97
478.101	390.99
478.465	362.9
478.829	421.63
479.193	470.14
479.557	459.93
479.921	429.29
480.284	459.93
480.648	480.35
481.012	406.31
481.375	355.24
481.739	416.52
482.102	426.73
482.466	375.67
482.829	380.77
483.193	436.95
483.556	457.37
483.919	375.67
484.282	447.16
484.645	368.01
485.009	436.95
485.372	426.73
485.735	370.56
486.098	375.67
486.46	401.2
486.823	411.41
487.186	396.09
487.549	439.5
487.912	416.52
488.274	413.97
488.637	403.75
488.999	380.77
489.362	503.33
489.724	452.27
490.087	424.18
490.449	383.33
490.811	459.93
491.174	403.75
491.536	444.61
491.898	398.65
492.26	403.75
492.622	431.84
492.984	403.75
493.346	424.18
493.708	406.31
494.07	403.75
494.432	429.29
494.794	362.9
495.155	322.04
495.517	365.45
495.879	419.07
496.24	365.45
496.602	459.93
496.963	398.65
497.325	431.84
497.686	390.99
498.048	370.56
498.409	442.05
498.77	375.67
499.131	424.18
499.492	485.46
499.854	424.18
500.215	403.75
500.576	390.99
500.937	398.65
501.298	465.03
501.658	388.43
502.019	413.97
502.38	398.65
502.741	345.03
503.101	403.75
503.462	421.63
503.823	470.14
504.183	426.73
504.543	442.05
504.904	454.82
505.264	419.07
505.625	396.09
505.985	396.09
506.345	352.69
506.705	357.79
507.065	390.99
507.426	370.56
507.786	396.09
508.146	403.75
508.505	339.92
508.865	408.86
509.225	413.97
509.585	477.8
509.945	408.86
510.304	398.65
510.664	380.77
511.024	485.46
511.383	416.52
511.743	452.27
512.102	396.09
512.462	444.61
512.821	388.43
513.18	401.2
513.539	419.07
513.899	467.59
514.258	480.35
514.617	390.99
514.976	337.37
515.335	350.13
515.694	401.2
516.053	401.2
516.412	413.97
516.771	380.77
517.129	424.18
517.488	459.93
517.847	373.11
518.205	378.22
518.564	490.57
518.922	429.29
519.281	390.99
519.639	424.18
519.998	375.67
520.356	365.45
520.714	396.09
521.073	408.86
521.431	449.71
521.789	452.27
522.147	406.31
522.505	457.37
522.863	421.63
523.221	416.52
523.579	424.18
523.937	385.88
524.295	411.41
524.652	434.39
525.01	380.77
525.368	388.43
525.725	421.63
526.083	419.07
526.44	342.47
526.798	378.22
527.155	385.88
527.513	368.01
527.87	482.91
528.227	449.71
528.584	426.73
528.942	350.13
529.299	442.05
529.656	408.86
530.013	380.77
530.37	350.13
530.727	413.97
531.083	362.9
531.44	406.31
531.797	429.29
532.154	408.86
532.511	403.75
532.867	470.14
533.224	396.09
533.58	431.84
533.937	447.16
534.293	388.43
534.65	396.09
535.006	421.63
535.362	449.71
535.718	508.44
536.075	523.76
536.431	421.63
536.787	352.69
537.143	426.73
537.499	431.84
537.855	352.69
538.211	393.54
538.567	449.71
538.923	411.41
539.278	439.5
539.634	419.07
539.99	480.35
540.345	436.95
540.701	424.18
541.056	401.2
541.412	421.63
541.767	421.63
542.123	431.84
542.478	398.65
542.833	459.93
543.188	393.54
543.544	403.75
543.899	454.82
544.254	426.73
544.609	406.31
544.964	408.86
545.319	413.97
545.674	444.61
546.029	447.16
546.383	355.24
546.738	421.63
547.093	429.29
547.447	413.97
547.802	345.03
548.157	411.41
548.511	449.71
548.866	406.31
549.22	388.43
549.574	350.13
549.929	352.69
550.283	314.38
550.637	426.73
550.991	493.12
551.345	398.65
551.699	388.43
552.053	406.31
552.407	385.88
552.761	480.35
553.115	426.73
553.469	457.37
553.823	411.41
554.176	447.16
554.53	462.48
554.884	493.12
555.237	600.36
555.591	470.14
555.944	477.8
556.298	500.78
556.651	485.46
557.005	488.01
557.358	426.73
557.711	436.95
558.064	380.77
558.417	419.07
558.771	585.04
559.124	442.05
559.477	452.27
559.83	490.57
560.182	431.84
560.535	434.39
560.888	383.33
561.241	413.97
561.594	436.95
561.946	434.39
562.299	388.43
562.651	383.33
563.004	444.61
563.356	365.45
563.709	419.07
564.061	411.41
564.413	419.07
564.766	444.61
565.118	482.91
565.47	396.09
565.822	470.14
566.174	462.48
566.526	408.86
566.878	393.54
567.23	406.31
567.582	436.95
567.934	424.18
568.286	442.05
568.638	408.86
568.989	401.2
569.341	385.88
569.693	424.18
570.044	408.86
570.396	416.52
570.747	352.69
571.098	390.99
571.45	449.71
571.801	380.77
572.152	401.2
572.504	388.43
572.855	413.97
573.206	411.41
573.557	521.21
573.908	393.54
574.259	401.2
574.61	337.37
574.961	419.07
575.311	472.69
575.662	434.39
576.013	388.43
576.364	462.48
576.714	390.99
577.065	368.01
577.415	408.86
577.766	416.52
578.116	424.18
578.467	434.39
578.817	416.52
579.167	421.63
579.518	431.84
579.868	373.11
580.218	454.82
580.568	401.2
580.918	454.82
581.268	434.39
581.618	383.33
581.968	434.39
582.318	434.39
582.668	419.07
583.017	373.11
583.367	439.5
583.717	465.03
584.066	434.39
584.416	339.92
584.765	413.97
585.115	334.81
585.464	388.43
585.814	429.29
586.163	388.43
586.512	393.54
586.862	390.99
587.211	339.92
587.56	375.67
587.909	411.41
588.258	393.54
588.607	403.75
588.956	413.97
589.305	370.56
589.654	413.97
590.002	424.18
590.351	368.01
590.7	403.75
591.048	357.79
591.397	449.71
591.746	393.54
592.094	385.88
592.443	454.82
592.791	426.73
593.139	375.67
593.488	459.93
593.836	421.63
594.184	449.71
594.532	436.95
594.88	436.95
595.228	396.09
595.576	413.97
595.924	452.27
596.272	426.73
596.62	442.05
596.968	380.77
597.316	444.61
597.664	383.33
598.011	426.73
598.359	383.33
598.706	388.43
599.054	413.97
599.402	413.97
599.749	442.05
600.096	419.07
600.444	436.95
600.791	352.69
601.138	388.43
601.485	419.07
601.833	431.84
602.18	390.99
602.527	449.71
602.874	421.63
603.221	406.31
603.568	398.65
603.914	403.75
604.261	339.92
604.608	413.97
604.955	406.31
605.301	390.99
605.648	327.15
605.995	362.9
606.341	480.35
606.688	396.09
607.034	454.82
607.38	385.88
607.727	429.29
608.073	426.73
608.419	421.63
608.765	475.25
609.112	370.56
609.458	401.2
609.804	365.45
610.15	352.69
610.496	454.82
610.842	429.29
611.187	352.69
611.533	462.48
611.879	439.5
612.225	480.35
612.57	436.95
612.916	434.39
613.261	429.29
613.607	426.73
613.952	375.67
614.298	360.35
614.643	373.11
614.989	421.63
615.334	431.84
615.679	385.88
616.024	429.29
616.369	378.22
616.714	408.86
617.059	383.33
617.404	426.73
617.749	421.63
618.094	442.05
618.439	421.63
618.784	434.39
619.129	411.41
619.473	413.97
619.818	388.43
620.163	470.14
620.507	419.07
620.852	424.18
621.196	444.61
621.54	426.73
621.885	457.37
622.229	436.95
622.573	429.29
622.918	424.18
623.262	375.67
623.606	436.95
623.95	345.03
624.294	390.99
624.638	378.22
624.982	380.77
625.326	365.45
625.67	462.48
626.013	419.07
626.357	442.05
626.701	444.61
627.044	390.99
627.388	419.07
627.731	416.52
628.075	408.86
628.418	419.07
628.762	398.65
629.105	442.05
629.448	508.44
629.792	457.37
630.135	442.05
630.478	416.52
630.821	454.82
631.164	452.27
631.507	396.09
631.85	419.07
632.193	411.41
632.536	408.86
632.879	388.43
633.221	385.88
633.564	436.95
633.907	388.43
634.249	442.05
634.592	416.52
634.935	416.52
635.277	375.67
635.619	406.31
635.962	434.39
636.304	390.99
636.646	457.37
636.989	390.99
637.331	380.77
637.673	444.61
638.015	393.54
638.357	324.6
638.699	362.9
639.041	413.97
639.383	316.94
639.725	362.9
640.067	421.63
640.408	434.39
640.75	388.43
641.092	462.48
641.433	465.03
641.775	408.86
642.116	413.97
642.458	380.77
642.799	429.29
643.141	362.9
643.482	406.31
643.823	357.79
644.164	403.75
644.506	411.41
644.847	403.75
645.188	416.52
645.529	431.84
645.87	429.29
646.211	383.33
646.552	322.04
646.893	380.77
647.233	373.11
647.574	339.92
647.915	419.07
648.255	419.07
648.596	424.18
648.937	362.9
649.277	383.33
649.618	380.77
649.958	401.2
650.298	373.11
650.639	403.75
650.979	388.43
651.319	424.18
651.659	393.54
651.999	378.22
652.339	449.71
652.679	436.95
653.019	413.97
653.359	429.29
653.699	365.45
654.039	329.7
654.379	396.09
654.719	454.82
655.058	431.84
655.398	396.09
655.737	419.07
656.077	360.35
656.416	480.35
656.756	408.86
657.095	411.41
657.435	401.2
657.774	434.39
658.113	431.84
658.452	477.8
658.792	424.18
659.131	403.75
659.47	413.97
659.809	378.22
660.148	436.95
660.487	398.65
660.826	434.39
661.164	413.97
661.503	350.13
661.842	411.41
662.181	406.31
662.519	413.97
662.858	373.11
663.196	398.65
663.535	373.11
663.873	390.99
664.212	383.33
664.55	454.82
664.888	488.01
665.226	408.86
665.565	352.69
665.903	551.85
666.241	342.47
666.579	319.49
666.917	375.67
667.255	347.58
667.593	396.09
667.931	439.5
668.268	470.14
668.606	406.31
668.944	406.31
669.282	380.77
669.619	365.45
669.957	411.41
670.294	390.99
670.632	360.35
670.969	393.54
671.307	350.13
671.644	357.79
671.981	393.54
672.318	368.01
672.656	470.14
672.993	352.69
673.33	380.77
673.667	408.86
674.004	421.63
674.341	401.2
674.678	419.07
675.015	388.43
675.351	390.99
675.688	403.75
676.025	342.47
676.362	421.63
676.698	385.88
677.035	373.11
677.371	429.29
677.708	413.97
678.044	357.79
678.38	339.92
678.717	352.69
679.053	396.09
679.389	383.33
679.725	385.88
680.062	444.61
680.398	434.39
680.734	345.03
681.07	373.11
681.406	401.2
681.742	465.03
682.077	434.39
682.413	447.16
682.749	465.03
683.085	357.79
683.42	419.07
683.756	373.11
684.091	457.37
684.427	454.82
684.762	396.09
685.098	385.88
685.433	408.86
685.768	498.23
686.104	373.11
686.439	350.13
686.774	350.13
687.109	406.31
687.444	436.95
687.779	362.9
688.114	352.69
688.449	373.11
688.784	390.99
689.119	385.88
689.454	373.11
689.789	449.71
690.123	424.18
690.458	388.43
690.792	380.77
691.127	301.62
691.461	390.99
691.796	398.65
692.13	416.52
692.465	485.46
692.799	388.43
693.133	342.47
693.467	416.52
693.802	406.31
694.136	408.86
694.47	447.16
694.804	378.22
695.138	431.84
695.472	426.73
695.806	416.52
696.139	360.35
696.473	375.67
696.807	413.97
697.141	385.88
697.474	406.31
697.808	419.07
698.141	436.95
698.475	454.82
698.808	467.59
699.142	355.24
699.475	426.73
699.808	390.99
700.142	352.69
700.475	467.59
700.808	385.88
701.141	380.77
701.474	419.07
701.807	403.75
702.14	431.84
702.473	447.16
702.806	342.47
703.139	370.56
703.472	424.18
703.804	403.75
704.137	416.52
704.47	398.65
704.802	444.61
705.135	388.43
705.467	444.61
705.8	447.16
706.132	370.56
706.464	383.33
706.797	447.16
707.129	408.86
707.461	416.52
707.793	403.75
708.125	439.5
708.457	350.13
708.789	452.27
709.121	385.88
709.453	393.54
709.785	380.77
710.117	444.61
710.449	383.33
710.781	436.95
711.112	383.33
711.444	439.5
711.775	398.65
712.107	403.75
712.438	401.2
712.77	429.29
713.101	447.16
713.433	426.73
713.764	413.97
714.095	475.25
714.426	385.88
714.757	457.37
715.089	457.37
715.42	434.39
715.751	490.57
716.082	390.99
716.412	390.99
716.743	401.2
717.074	362.9
717.405	375.67
717.736	403.75
718.066	429.29
718.397	444.61
718.727	480.35
719.058	390.99
719.388	413.97
719.719	365.45
720.049	434.39
720.38	406.31
720.71	378.22
721.04	337.37
721.37	385.88
721.7	403.75
722.031	385.88
722.361	334.81
722.691	345.03
723.021	390.99
723.35	388.43
723.68	370.56
724.01	396.09
724.34	390.99
724.67	378.22
724.999	319.49
725.329	378.22
725.658	416.52
725.988	408.86
726.317	375.67
726.647	373.11
726.976	329.7
727.306	390.99
727.635	334.81
727.964	380.77
728.293	439.5
728.622	444.61
728.952	429.29
729.281	401.2
729.61	383.33
729.939	488.01
730.267	419.07
730.596	390.99
730.925	419.07
731.254	378.22
731.583	426.73
731.911	416.52
732.24	398.65
732.568	416.52
732.897	401.2
733.225	406.31
733.554	411.41
733.882	436.95
734.21	385.88
734.539	408.86
734.867	406.31
735.195	352.69
735.523	355.24
735.851	375.67
736.179	304.17
736.507	436.95
736.835	403.75
737.163	401.2
737.491	426.73
737.819	401.2
738.147	380.77
738.474	393.54
738.802	429.29
739.13	421.63
739.457	424.18
739.785	434.39
740.112	408.86
740.44	421.63
740.767	388.43
741.094	357.79
741.422	362.9
741.749	416.52
742.076	424.18
742.403	365.45
742.73	421.63
743.057	362.9
743.384	416.52
743.711	393.54
744.038	375.67
744.365	449.71
744.692	403.75
745.018	411.41
745.345	322.04
745.672	426.73
745.998	467.59
746.325	424.18
746.651	475.25
746.978	429.29
747.304	355.24
747.631	380.77
747.957	449.71
748.283	454.82
748.61	370.56
748.936	339.92
749.262	357.79
749.588	406.31
749.914	419.07
750.24	465.03
750.566	424.18
750.892	370.56
751.218	426.73
751.543	472.69
751.869	424.18
752.195	480.35
752.521	419.07
752.846	426.73
753.172	398.65
753.497	393.54
753.823	396.09
754.148	472.69
754.473	385.88
754.799	360.35
755.124	362.9
755.449	293.96
755.774	352.69
756.1	355.24
756.425	419.07
756.75	470.14
757.075	416.52
757.4	419.07
757.724	406.31
758.049	406.31
758.374	385.88
758.699	401.2
759.024	390.99
759.348	482.91
759.673	426.73
759.997	375.67
760.322	352.69
760.646	439.5
760.971	403.75
761.295	406.31
761.619	436.95
761.944	459.93
762.268	380.77
762.592	413.97
762.916	513.55
763.24	488.01
763.564	452.27
763.888	592.7
764.212	465.03
764.536	505.89
764.86	544.19
765.184	608.02
765.508	666.75
765.831	653.98
766.155	939.96
766.478	705.05
766.802	633.56
767.126	817.4
767.449	809.74
767.772	871.02
768.096	947.62
768.419	876.13
768.742	932.3
769.066	980.82
769.389	1031.88
769.712	1070.18
770.035	1008.9
770.358	1134.02
770.681	1228.49
771.004	1233.6
771.327	1182.53
771.65	1248.92
771.972	1315.31
772.295	1231.05
772.618	1330.63
772.941	1345.95
773.263	1399.57
773.586	1488.94
773.908	1670.23
774.231	1731.51
774.553	1703.42
774.875	1805.56
775.198	1780.02
775.52	1797.9
775.842	1874.5
776.164	1800.45
776.487	1708.53
776.809	1767.26
777.131	1953.65
777.453	1905.14
777.775	1859.18
778.096	1884.71
778.418	1902.59
778.74	1833.64
779.062	1997.06
779.384	2122.18
779.705	2344.32
780.027	2558.8
780.348	2594.55
780.67	2471.99
780.991	2592
781.313	2870.32
781.634	3018.41
781.955	2694.13
782.277	2678.81
782.598	2658.39
782.919	2724.77
783.24	2732.43
783.561	2694.13
783.882	2635.41
784.203	2742.65
784.524	2678.81
784.845	2630.3
785.166	2474.54
785.487	2505.18
785.807	2563.91
786.128	2354.53
786.449	2451.56
786.769	2538.38
787.09	2671.15
787.41	2658.39
787.731	3146.08
788.051	3204.81
788.372	3294.18
788.692	3503.55
789.012	3559.73
789.332	3449.93
789.653	3495.89
789.973	3927.41
790.293	3741.02
790.613	3207.36
790.933	3169.06
791.253	2967.34
791.573	2809.03
791.893	2727.33
792.212	2658.39
792.532	2579.23
792.852	2471.99
793.171	2290.7
793.491	2357.09
793.811	2390.28
794.13	2395.39
794.45	2408.15
794.769	2410.71
795.088	2520.5
795.408	2597.1
795.727	2752.86
796.046	2694.13
796.365	2571.57
796.684	2469.44
797.004	2344.32
797.323	2461.78
797.642	2745.2
797.96	2791.16
798.279	2689.03
798.598	2528.16
798.917	2449.01
799.236	2270.27
799.554	2196.22
799.873	2088.98
800.192	2150.26
800.51	2214.1
800.829	2160.48
801.147	2117.07
801.466	2007.27
801.784	1956.21
802.102	1928.12
802.421	1971.53
802.739	2186.01
803.057	2017.49
803.375	1808.11
803.693	1897.48
804.011	2060.9
804.329	2168.14
804.647	2017.49
804.965	1871.95
805.283	1856.62
805.601	1836.2
805.918	1767.26
806.236	1598.73
806.554	1675.34
806.871	1713.64
807.189	1739.17
807.507	1759.6
807.824	1843.86
808.141	1555.33
808.459	1427.66
808.776	1292.33
809.093	1266.79
809.411	1093.16
809.728	1154.45
810.045	1131.47
810.362	1220.83
810.679	1136.57
810.996	1131.47
811.313	1151.89
811.63	1172.32
811.947	1174.87
812.264	1256.58
812.58	1254.03
812.897	1151.89
813.214	1192.75
813.53	1116.15
813.847	1259.13
814.163	1238.71
814.48	1162.11
814.796	1039.54
815.113	1098.27
815.429	1144.23
815.745	1036.99
816.061	1039.54
816.378	1034.44
816.694	919.54
817.01	881.23
817.326	1011.46
817.642	1019.12
817.958	873.57
818.274	804.63
818.59	827.61
818.905	809.74
819.221	779.1
819.537	873.57
819.852	799.53
820.168	779.1
820.484	664.2
820.799	766.33
821.115	766.33
821.43	919.54
821.745	796.97
822.061	789.31
822.376	850.59
822.691	773.99
823.006	773.99
823.322	671.86
823.637	643.77
823.952	705.05
824.267	661.64
824.582	687.18
824.897	585.04
825.211	676.96
825.526	676.96
825.841	676.96
826.156	572.28
826.47	541.64
826.785	587.6
827.1	597.81
827.414	613.13
827.729	590.15
828.043	539.08
828.357	587.6
828.672	526.32
828.986	549.3
829.3	579.94
829.614	574.83
829.929	541.64
830.243	613.13
830.557	544.19
830.871	442.05
831.185	526.32
831.499	498.23
831.812	549.3
832.126	439.5
832.44	556.96
832.754	516.1
833.067	549.3
833.381	579.94
833.695	523.76
834.008	541.64
834.322	454.82
834.635	457.37
834.948	477.8
835.262	429.29
835.575	549.3
835.888	434.39
836.201	416.52
836.515	503.33
836.828	421.63
837.141	493.12
837.454	475.25
837.767	457.37
838.08	459.93
838.392	490.57
838.705	429.29
839.018	459.93
839.331	467.59
839.643	416.52
839.956	370.56
840.269	457.37
840.581	482.91
840.894	431.84
841.206	396.09
841.519	592.7
841.831	421.63
842.143	378.22
842.455	434.39
842.768	375.67
843.08	421.63
843.392	480.35
843.704	462.48
844.016	449.71
844.328	462.48
844.64	429.29
844.952	436.95
845.263	439.5
845.575	442.05
845.887	454.82
846.199	329.7
846.51	339.92
846.822	416.52
847.133	403.75
847.445	408.86
847.756	373.11
848.068	424.18
848.379	365.45
848.69	413.97
849.002	513.55
849.313	490.57
849.624	408.86
849.935	477.8
850.246	347.58
850.557	388.43
850.868	416.52
851.179	365.45
851.49	406.31
851.801	390.99
852.112	406.31
852.422	385.88
852.733	436.95
853.044	436.95
853.354	383.33
853.665	375.67
853.975	380.77
854.286	375.67
854.596	385.88
854.906	434.39
855.217	421.63
855.527	373.11
855.837	370.56
856.147	370.56
856.458	368.01
856.768	408.86
857.078	413.97
857.388	454.82
857.698	383.33
858.007	380.77
858.317	380.77
858.627	368.01
858.937	362.9
859.246	332.26
859.556	419.07
859.866	403.75
860.175	416.52
860.485	444.61
860.794	347.58
861.104	457.37
861.413	413.97
861.722	421.63
862.032	388.43
862.341	447.16
862.65	380.77
862.959	322.04
863.268	368.01
863.577	416.52
863.886	390.99
864.195	368.01
864.504	419.07
864.813	431.84
865.122	390.99
865.43	368.01
865.739	390.99
866.048	360.35
866.356	393.54
866.665	373.11
866.973	416.52
867.282	398.65
867.59	357.79
867.899	342.47
868.207	403.75
868.515	426.73
868.823	350.13
869.132	365.45
869.44	383.33
869.748	439.5
870.056	411.41
870.364	398.65
870.672	370.56
870.98	362.9
871.288	380.77
871.595	373.11
871.903	375.67
872.211	413.97
872.518	373.11
872.826	444.61
873.134	357.79
873.441	431.84
873.749	378.22
874.056	398.65
874.363	398.65
874.671	375.67
874.978	368.01
875.285	360.35
875.592	421.63
875.9	426.73
876.207	355.24
876.514	345.03
876.821	408.86
877.128	398.65
877.435	375.67
877.741	380.77
878.048	365.45
878.355	421.63
878.662	436.95
878.968	442.05
879.275	393.54
879.582	436.95
879.888	408.86
880.195	401.2
880.501	429.29
880.807	403.75
881.114	375.67
881.42	309.28
881.726	403.75
882.032	334.81
882.339	378.22
882.645	452.27
882.951	480.35
883.257	378.22
883.563	401.2
883.869	350.13
884.174	413.97
884.48	467.59
884.786	421.63
885.092	347.58
885.397	419.07
885.703	419.07
886.009	411.41
886.314	362.9
886.62	467.59
886.925	431.84
887.231	339.92
887.536	429.29
887.841	439.5
888.146	375.67
888.452	413.97
888.757	444.61
889.062	396.09
889.367	421.63
889.672	411.41
889.977	403.75
890.282	444.61
890.587	385.88
890.892	429.29
891.196	388.43
891.501	373.11
891.806	357.79
892.11	370.56
892.415	365.45
892.72	375.67
893.024	368.01
893.328	431.84
893.633	403.75
893.937	390.99
894.242	380.77
894.546	334.81
894.85	306.72
895.154	408.86
895.458	368.01
895.762	413.97
896.066	401.2
896.37	390.99
896.674	406.31
896.978	370.56
897.282	357.79
897.586	357.79
897.89	368.01
898.193	375.67
898.497	413.97
898.801	406.31
899.104	436.95
899.408	431.84
899.711	385.88
900.014	408.86
900.318	334.81
900.621	355.24
900.924	342.47
901.228	365.45
901.531	324.6
901.834	375.67
902.137	431.84
902.44	459.93
902.743	447.16
903.046	447.16
903.349	426.73
903.652	413.97
903.955	385.88
904.257	401.2
904.56	385.88
904.863	401.2
905.165	368.01
905.468	401.2
905.77	352.69
906.073	401.2
906.375	373.11
906.678	380.77
906.98	327.15
907.282	424.18
907.584	388.43
907.887	373.11
908.189	383.33
908.491	385.88
908.793	439.5
909.095	401.2
909.397	301.62
909.699	419.07
910.001	401.2
910.302	375.67
910.604	393.54
910.906	408.86
911.208	416.52
911.509	419.07
911.811	355.24
912.112	368.01
912.414	370.56
912.715	375.67
913.017	421.63
913.318	380.77
913.619	436.95
913.92	352.69
914.222	396.09
914.523	368.01
914.824	383.33
915.125	390.99
915.426	316.94
915.727	431.84
916.028	447.16
916.329	403.75
916.63	434.39
916.93	345.03
917.231	378.22
917.532	426.73
917.832	434.39
918.133	388.43
918.434	401.2
918.734	350.13
919.034	426.73
919.335	362.9
919.635	385.88
919.935	322.04
920.236	352.69
920.536	401.2
920.836	388.43
921.136	401.2
921.436	526.32
921.736	419.07
922.036	424.18
922.336	421.63
922.636	419.07
922.936	357.79
923.236	452.27
923.535	393.54
923.835	398.65
924.135	304.17
924.434	436.95
924.734	424.18
925.033	449.71
925.333	442.05
925.632	411.41
925.932	411.41
926.231	388.43
926.53	365.45
926.83	454.82
927.129	378.22
927.428	337.37
927.727	390.99
928.026	411.41
928.325	413.97
928.624	431.84
928.923	411.41
929.222	383.33
929.52	398.65
929.819	362.9
930.118	408.86
930.417	362.9
930.715	470.14
931.014	426.73
931.312	449.71
931.611	421.63
931.909	429.29
932.207	442.05
932.506	457.37
932.804	406.31
933.102	388.43
933.401	329.7
933.699	383.33
933.997	350.13
934.295	390.99
934.593	375.67
934.891	316.94
935.189	383.33
935.487	342.47
935.784	332.26
936.082	457.37
936.38	401.2
936.677	327.15
936.975	419.07
937.273	419.07
937.57	390.99
937.868	357.79
938.165	334.81
938.463	390.99
938.76	406.31
939.057	398.65
939.354	380.77
939.652	375.67
939.949	388.43
940.246	406.31
940.543	355.24
940.84	373.11
941.137	293.96
941.434	385.88
941.731	390.99
942.028	355.24
942.324	368.01
942.621	416.52
942.918	370.56
943.214	388.43
943.511	380.77
943.807	426.73
944.104	396.09
944.4	393.54
944.697	431.84
944.993	362.9
945.29	339.92
945.586	411.41
945.882	413.97
946.178	342.47
946.474	332.26
946.77	378.22
947.066	352.69
947.362	419.07
947.658	383.33
947.954	413.97
948.25	350.13
948.546	403.75
948.842	350.13
949.137	327.15
949.433	357.79
949.729	362.9
950.024	357.79
950.32	327.15
950.615	350.13
950.91	329.7
951.206	378.22
951.501	385.88
951.796	360.35
952.092	454.82
952.387	444.61
952.682	401.2
952.977	401.2
953.272	398.65
953.567	454.82
953.862	429.29
954.157	419.07
954.452	403.75
954.747	365.45
955.041	362.9
955.336	360.35
955.631	416.52
955.925	439.5
956.22	401.2
956.514	403.75
956.809	373.11
957.103	401.2
957.398	406.31
957.692	413.97
957.986	408.86
958.281	383.33
958.575	388.43
958.869	426.73
959.163	393.54
959.457	390.99
959.751	388.43
960.045	401.2
960.339	406.31
960.633	424.18
960.927	403.75
961.221	411.41
961.514	357.79
961.808	370.56
962.102	383.33
962.395	398.65
962.689	352.69
962.982	426.73
963.276	347.58
963.569	434.39
963.862	385.88
964.156	373.11
964.449	416.52
964.742	436.95
965.035	378.22
965.328	370.56
965.622	434.39
965.915	426.73
966.208	380.77
966.5	370.56
966.793	378.22
967.086	357.79
967.379	411.41
967.672	337.37
967.964	408.86
968.257	380.77
968.55	370.56
968.842	454.82
969.135	339.92
969.427	345.03
969.72	352.69
970.012	393.54
970.304	393.54
970.597	357.79
970.889	385.88
971.181	352.69
971.473	368.01
971.765	357.79
972.057	345.03
972.349	380.77
972.641	322.04
972.933	329.7
973.225	370.56
973.517	345.03
973.809	424.18
974.1	383.33
974.392	403.75
974.684	383.33
974.975	345.03
975.267	398.65
975.558	373.11
975.85	327.15
976.141	342.47
976.432	350.13
976.724	365.45
977.015	368.01
977.306	426.73
977.597	434.39
977.888	424.18
978.179	360.35
978.47	426.73
978.761	396.09
979.052	357.79
979.343	337.37
979.634	403.75
979.925	324.6
980.215	319.49
980.506	360.35
980.797	334.81
981.087	362.9
981.378	355.24
981.668	398.65
981.959	424.18
982.249	411.41
982.54	449.71
982.83	360.35
983.12	411.41
983.41	470.14
983.701	357.79
983.991	416.52
984.281	388.43
984.571	419.07
984.861	375.67
985.151	396.09
985.441	396.09
985.73	411.41
986.02	365.45
986.31	421.63
986.6	365.45
986.889	350.13
987.179	383.33
987.469	431.84
987.758	368.01
988.048	380.77
988.337	383.33
988.626	398.65
988.916	424.18
989.205	452.27
989.494	403.75
989.783	403.75
990.073	406.31
990.362	347.58
990.651	373.11
990.94	352.69
991.229	403.75
991.518	401.2
991.806	299.06
992.095	306.72
992.384	362.9
992.673	419.07
992.961	398.65
993.25	368.01
993.539	401.2
993.827	368.01
994.116	447.16
994.404	370.56
994.692	401.2
994.981	352.69
995.269	339.92
995.557	380.77
995.846	378.22
996.134	352.69
996.422	408.86
996.71	378.22
996.998	434.39
997.286	334.81
997.574	419.07
997.862	421.63
998.15	482.91
998.437	408.86
998.725	421.63
999.013	365.45
999.3	373.11
999.588	398.65
999.876	396.09
1000.163	373.11
1000.45	401.2
1000.738	424.18
1001.025	385.88
1001.313	355.24
1001.6	403.75
1001.887	383.33
1002.174	388.43
1002.461	319.49
1002.748	385.88
1003.036	352.69
1003.322	383.33
1003.609	370.56
1003.896	454.82
1004.183	411.41
1004.47	449.71
1004.757	393.54
1005.043	434.39
1005.33	408.86
1005.617	378.22
1005.903	324.6
1006.19	434.39
1006.476	342.47
1006.763	416.52
1007.049	467.59
1007.335	334.81
1007.622	429.29
1007.908	373.11
1008.194	375.67
1008.48	339.92
1008.766	370.56
1009.053	416.52
1009.339	419.07
1009.625	380.77
1009.91	327.15
1010.196	373.11
1010.482	390.99
1010.768	406.31
1011.054	332.26
1011.339	421.63
1011.625	393.54
1011.911	429.29
1012.196	426.73
1012.482	398.65
1012.767	368.01
1013.052	434.39
1013.338	396.09
1013.623	396.09
1013.908	431.84
1014.194	385.88
1014.479	485.46
1014.764	396.09
1015.049	370.56
1015.334	362.9
1015.619	385.88
1015.904	342.47
1016.189	380.77
1016.474	388.43
1016.758	383.33
1017.043	421.63
1017.328	403.75
1017.613	352.69
1017.897	416.52
1018.182	408.86
1018.466	439.5
1018.751	439.5
1019.035	434.39
1019.32	375.67
1019.604	380.77
1019.888	401.2
1020.172	401.2
1020.457	401.2
