Data from 2025-12-03_xpw_interference_micrometer_634_reference_FLMS141361__109__359.txt Node

Date: Wed Dec 03 15:51:23 MST 2025
User: james
Spectrometer: FLMS14136
Trigger mode: 0
Integration Time (sec): 1.000000E-1
Scans to average: 1
Electric dark correction enabled: true
Nonlinearity correction enabled: false
Boxcar width: 0
XAxis mode: Wavelengths
Number of Pixels in Spectrum: 2048
>>>>>Begin Spectral Data<<<<<
339.315	-15.48
339.697	-15.48
340.079	-15.48
340.461	-143.15
340.843	-102.29
341.225	-145.7
341.607	-125.28
341.989	-99.74
342.371	-112.51
342.752	-25.69
343.134	-38.46
343.516	-7.82
343.897	-71.65
344.279	40.69
344.661	22.82
345.042	45.8
345.423	45.8
345.805	101.98
346.186	122.4
346.567	127.51
346.949	119.85
347.33	227.09
347.711	127.51
348.092	193.9
348.473	267.95
348.854	196.45
349.235	285.82
349.616	303.69
349.997	306.25
350.378	321.57
350.758	275.61
351.139	331.78
351.52	334.33
351.9	382.85
352.281	339.44
352.661	331.78
353.042	303.69
353.422	390.51
353.803	431.36
354.183	423.7
354.563	380.29
354.943	334.33
355.324	336.89
355.704	331.78
356.084	385.4
356.464	387.95
356.844	456.9
357.224	377.74
357.603	395.61
357.983	380.29
358.363	393.06
358.743	441.57
359.122	377.74
359.502	359.87
359.882	341.99
360.261	308.8
360.641	418.59
361.02	311.35
361.399	290.93
361.779	364.97
362.158	347.1
362.537	382.85
362.916	324.12
363.296	390.51
363.675	339.44
364.054	367.53
364.433	364.97
364.812	344.55
365.19	239.86
365.569	326.67
365.948	275.61
366.327	380.29
366.705	308.8
367.084	380.29
367.463	382.85
367.841	336.89
368.22	377.74
368.598	311.35
368.977	382.85
369.355	324.12
369.733	316.46
370.111	367.53
370.49	339.44
370.868	334.33
371.246	303.69
371.624	362.42
372.002	377.74
372.38	387.95
372.758	349.65
373.136	308.8
373.513	390.51
373.891	398.17
374.269	316.46
374.646	316.46
375.024	341.99
375.402	372.63
375.779	387.95
376.157	393.06
376.534	331.78
376.911	416.04
377.289	329.23
377.666	357.31
378.043	400.72
378.42	390.51
378.797	390.51
379.175	347.1
379.552	336.89
379.929	347.1
380.305	285.82
380.682	316.46
381.059	387.95
381.436	362.42
381.813	393.06
382.189	393.06
382.566	352.21
382.943	331.78
383.319	380.29
383.696	349.65
384.072	334.33
384.448	385.4
384.825	364.97
385.201	377.74
385.577	326.67
385.953	308.8
386.329	370.08
386.706	344.55
387.082	423.7
387.458	362.42
387.834	444.13
388.209	382.85
388.585	416.04
388.961	354.76
389.337	426.25
389.713	329.23
390.088	329.23
390.464	359.87
390.839	344.55
391.215	344.55
391.59	357.31
391.966	387.95
392.341	413.49
392.716	339.44
393.092	349.65
393.467	306.25
393.842	377.74
394.217	349.65
394.592	341.99
394.967	367.53
395.342	357.31
395.717	408.38
396.092	362.42
396.467	426.25
396.841	382.85
397.216	352.21
397.591	352.21
397.965	349.65
398.34	400.72
398.714	349.65
399.089	349.65
399.463	349.65
399.838	444.13
400.212	398.17
400.586	362.42
400.961	341.99
401.335	341.99
401.709	349.65
402.083	341.99
402.457	385.4
402.831	380.29
403.205	405.83
403.579	403.27
403.953	359.87
404.326	380.29
404.7	377.74
405.074	400.72
405.447	364.97
405.821	393.06
406.195	398.17
406.568	377.74
406.942	367.53
407.315	446.68
407.688	446.68
408.062	326.67
408.435	403.27
408.808	428.81
409.181	405.83
409.554	421.15
409.927	387.95
410.3	446.68
410.673	403.27
411.046	395.61
411.419	382.85
411.792	393.06
412.165	354.76
412.537	359.87
412.91	390.51
413.283	426.25
413.655	370.08
414.028	349.65
414.4	403.27
414.773	398.17
415.145	380.29
415.517	336.89
415.889	347.1
416.262	354.76
416.634	331.78
417.006	296.03
417.378	367.53
417.75	357.31
418.122	405.83
418.494	426.25
418.866	347.1
419.238	387.95
419.609	352.21
419.981	395.61
420.353	364.97
420.725	439.02
421.096	347.1
421.468	416.04
421.839	375.19
422.211	395.61
422.582	341.99
422.953	301.14
423.325	354.76
423.696	400.72
424.067	354.76
424.438	390.51
424.809	339.44
425.18	354.76
425.551	418.59
425.922	390.51
426.293	336.89
426.664	377.74
427.035	497.75
427.406	387.95
427.776	423.7
428.147	449.23
428.518	377.74
428.888	370.08
429.259	357.31
429.629	395.61
429.999	449.23
430.37	357.31
430.74	331.78
431.11	321.57
431.481	416.04
431.851	387.95
432.221	413.49
432.591	410.93
432.961	477.32
433.331	446.68
433.701	382.85
434.071	334.33
434.441	367.53
434.81	354.76
435.18	370.08
435.55	324.12
435.919	359.87
436.289	398.17
436.658	426.25
437.028	428.81
437.397	364.97
437.767	439.02
438.136	382.85
438.505	385.4
438.875	433.91
439.244	451.79
439.613	367.53
439.982	319.01
440.351	395.61
440.72	390.51
441.089	387.95
441.458	362.42
441.827	418.59
442.196	385.4
442.564	490.09
442.933	372.63
443.302	380.29
443.67	408.38
444.039	400.72
444.407	372.63
444.776	395.61
445.144	454.34
445.513	367.53
445.881	459.45
446.249	431.36
446.617	426.25
446.986	359.87
447.354	387.95
447.722	367.53
448.09	428.81
448.458	400.72
448.826	444.13
449.194	444.13
449.561	433.91
449.929	413.49
450.297	387.95
450.665	400.72
451.032	380.29
451.4	400.72
451.767	446.68
452.135	326.67
452.502	428.81
452.87	398.17
453.237	398.17
453.604	349.65
453.971	387.95
454.339	377.74
454.706	439.02
455.073	372.63
455.44	382.85
455.807	408.38
456.174	382.85
456.541	403.27
456.908	380.29
457.274	410.93
457.641	418.59
458.008	416.04
458.374	462
458.741	428.81
459.108	387.95
459.474	413.49
459.841	431.36
460.207	423.7
460.573	352.21
460.94	418.59
461.306	395.61
461.672	454.34
462.038	405.83
462.404	416.04
462.771	433.91
463.137	421.15
463.503	380.29
463.868	313.91
464.234	385.4
464.6	303.69
464.966	413.49
465.332	387.95
465.697	431.36
466.063	390.51
466.429	395.61
466.794	395.61
467.16	326.67
467.525	418.59
467.89	393.06
468.256	431.36
468.621	416.04
468.986	433.91
469.351	444.13
469.717	416.04
470.082	347.1
470.447	416.04
470.812	446.68
471.177	441.57
471.542	400.72
471.906	372.63
472.271	370.08
472.636	410.93
473.001	433.91
473.365	387.95
473.73	421.15
474.094	357.31
474.459	408.38
474.823	421.15
475.188	382.85
475.552	428.81
475.917	423.7
476.281	393.06
476.645	398.17
477.009	395.61
477.373	377.74
477.737	436.47
478.101	390.51
478.465	362.42
478.829	405.83
479.193	444.13
479.557	482.43
479.921	433.91
480.284	375.19
480.648	395.61
481.012	354.76
481.375	413.49
481.739	395.61
482.102	410.93
482.466	416.04
482.829	426.25
483.193	359.87
483.556	375.19
483.919	377.74
484.282	395.61
484.645	385.4
485.009	444.13
485.372	451.79
485.735	398.17
486.098	400.72
486.46	380.29
486.823	354.76
487.186	449.23
487.549	428.81
487.912	331.78
488.274	382.85
488.637	329.23
488.999	341.99
489.362	372.63
489.724	405.83
490.087	349.65
490.449	352.21
490.811	385.4
491.174	385.4
491.536	416.04
491.898	408.38
492.26	421.15
492.622	446.68
492.984	380.29
493.346	421.15
493.708	428.81
494.07	469.66
494.432	405.83
494.794	398.17
495.155	362.42
495.517	403.27
495.879	382.85
496.24	380.29
496.602	413.49
496.963	375.19
497.325	385.4
497.686	359.87
498.048	439.02
498.409	385.4
498.77	456.9
499.131	400.72
499.492	403.27
499.854	428.81
500.215	421.15
500.576	364.97
500.937	372.63
501.298	416.04
501.658	377.74
502.019	454.34
502.38	400.72
502.741	344.55
503.101	431.36
503.462	382.85
503.823	431.36
504.183	459.45
504.543	426.25
504.904	362.42
505.264	451.79
505.625	387.95
505.985	439.02
506.345	395.61
506.705	410.93
507.065	454.34
507.426	444.13
507.786	377.74
508.146	405.83
508.505	403.27
508.865	421.15
509.225	410.93
509.585	439.02
509.945	395.61
510.304	421.15
510.664	459.45
511.024	377.74
511.383	408.38
511.743	380.29
512.102	403.27
512.462	423.7
512.821	347.1
513.18	331.78
513.539	398.17
513.899	380.29
514.258	410.93
514.617	382.85
514.976	390.51
515.335	464.56
515.694	423.7
516.053	413.49
516.412	364.97
516.771	413.49
517.129	390.51
517.488	359.87
517.847	370.08
518.205	344.55
518.564	385.4
518.922	408.38
519.281	372.63
519.639	423.7
519.998	359.87
520.356	482.43
520.714	372.63
521.073	385.4
521.431	410.93
521.789	413.49
522.147	357.31
522.505	410.93
522.863	395.61
523.221	367.53
523.579	456.9
523.937	408.38
524.295	382.85
524.652	446.68
525.01	387.95
525.368	390.51
525.725	459.45
526.083	390.51
526.44	390.51
526.798	331.78
527.155	372.63
527.513	413.49
527.87	382.85
528.227	347.1
528.584	416.04
528.942	421.15
529.299	395.61
529.656	385.4
530.013	398.17
530.37	467.11
530.727	393.06
531.083	385.4
531.44	380.29
531.797	357.31
532.154	400.72
532.511	395.61
532.867	375.19
533.224	490.09
533.58	469.66
533.937	403.27
534.293	436.47
534.65	400.72
535.006	398.17
535.362	377.74
535.718	385.4
536.075	482.43
536.431	474.77
536.787	408.38
537.143	357.31
537.499	364.97
537.855	433.91
538.211	446.68
538.567	413.49
538.923	449.23
539.278	370.08
539.634	390.51
539.99	451.79
540.345	410.93
540.701	449.23
541.056	433.91
541.412	428.81
541.767	372.63
542.123	357.31
542.478	423.7
542.833	421.15
543.188	357.31
543.544	370.08
543.899	444.13
544.254	421.15
544.609	408.38
544.964	403.27
545.319	341.99
545.674	421.15
546.029	418.59
546.383	382.85
546.738	400.72
547.093	390.51
547.447	377.74
547.802	444.13
548.157	426.25
548.511	413.49
548.866	428.81
549.22	362.42
549.574	390.51
549.929	380.29
550.283	359.87
550.637	469.66
550.991	364.97
551.345	459.45
551.699	428.81
552.053	393.06
552.407	372.63
552.761	405.83
553.115	357.31
553.469	474.77
553.823	431.36
554.176	395.61
554.53	385.4
554.884	352.21
555.237	666.27
555.591	428.81
555.944	400.72
556.298	390.51
556.651	400.72
557.005	290.93
557.358	336.89
557.711	413.49
558.064	336.89
558.417	382.85
558.771	472.22
559.124	433.91
559.477	375.19
559.83	444.13
560.182	359.87
560.535	398.17
560.888	410.93
561.241	416.04
561.594	380.29
561.946	408.38
562.299	341.99
562.651	357.31
563.004	380.29
563.356	428.81
563.709	387.95
564.061	416.04
564.413	372.63
564.766	408.38
565.118	433.91
565.47	449.23
565.822	441.57
566.174	451.79
566.526	408.38
566.878	329.23
567.23	464.56
567.582	357.31
567.934	387.95
568.286	428.81
568.638	387.95
568.989	451.79
569.341	474.77
569.693	454.34
570.044	382.85
570.396	393.06
570.747	403.27
571.098	390.51
571.45	375.19
571.801	370.08
572.152	431.36
572.504	405.83
572.855	382.85
573.206	400.72
573.557	393.06
573.908	428.81
574.259	344.55
574.61	405.83
574.961	408.38
575.311	395.61
575.662	464.56
576.013	431.36
576.364	385.4
576.714	393.06
577.065	380.29
577.415	329.23
577.766	428.81
578.116	416.04
578.467	375.19
578.817	347.1
579.167	352.21
579.518	398.17
579.868	395.61
580.218	405.83
580.568	408.38
580.918	354.76
581.268	393.06
581.618	390.51
581.968	400.72
582.318	433.91
582.668	405.83
583.017	354.76
583.367	341.99
583.717	393.06
584.066	426.25
584.416	497.75
584.765	436.47
585.115	441.57
585.464	359.87
585.814	400.72
586.163	441.57
586.512	456.9
586.862	433.91
587.211	408.38
587.56	377.74
587.909	403.27
588.258	416.04
588.607	405.83
588.956	352.21
589.305	372.63
589.654	400.72
590.002	364.97
590.351	451.79
590.7	410.93
591.048	446.68
591.397	403.27
591.746	456.9
592.094	331.78
592.443	382.85
592.791	462
593.139	410.93
593.488	370.08
593.836	456.9
594.184	451.79
594.532	377.74
594.88	393.06
595.228	398.17
595.576	385.4
595.924	398.17
596.272	439.02
596.62	385.4
596.968	413.49
597.316	390.51
597.664	444.13
598.011	439.02
598.359	416.04
598.706	405.83
599.054	408.38
599.402	400.72
599.749	382.85
600.096	385.4
600.444	421.15
600.791	408.38
601.138	387.95
601.485	431.36
601.833	405.83
602.18	403.27
602.527	362.42
602.874	341.99
603.221	377.74
603.568	451.79
603.914	487.54
604.261	364.97
604.608	410.93
604.955	403.27
605.301	372.63
605.648	421.15
605.995	390.51
606.341	362.42
606.688	405.83
607.034	359.87
607.38	403.27
607.727	449.23
608.073	446.68
608.419	462
608.765	398.17
609.112	385.4
609.458	377.74
609.804	308.8
610.15	377.74
610.496	331.78
610.842	390.51
611.187	377.74
611.533	362.42
611.879	336.89
612.225	375.19
612.57	413.49
612.916	352.21
613.261	416.04
613.607	357.31
613.952	364.97
614.298	421.15
614.643	375.19
614.989	324.12
615.334	439.02
615.679	431.36
616.024	387.95
616.369	385.4
616.714	385.4
617.059	352.21
617.404	352.21
617.749	377.74
618.094	421.15
618.439	375.19
618.784	375.19
619.129	405.83
619.473	382.85
619.818	377.74
620.163	487.54
620.507	431.36
620.852	416.04
621.196	462
621.54	382.85
621.885	390.51
622.229	428.81
622.573	385.4
622.918	403.27
623.262	431.36
623.606	439.02
623.95	387.95
624.294	390.51
624.638	410.93
624.982	454.34
625.326	377.74
625.67	398.17
626.013	362.42
626.357	377.74
626.701	441.57
627.044	433.91
627.388	377.74
627.731	385.4
628.075	439.02
628.418	347.1
628.762	390.51
629.105	469.66
629.448	421.15
629.792	423.7
630.135	423.7
630.478	439.02
630.821	433.91
631.164	387.95
631.507	359.87
631.85	395.61
632.193	372.63
632.536	472.22
632.879	393.06
633.221	403.27
633.564	446.68
633.907	436.47
634.249	444.13
634.592	375.19
634.935	395.61
635.277	451.79
635.619	370.08
635.962	426.25
636.304	400.72
636.646	456.9
636.989	423.7
637.331	459.45
637.673	380.29
638.015	382.85
638.357	385.4
638.699	319.01
639.041	444.13
639.383	393.06
639.725	441.57
640.067	385.4
640.408	433.91
640.75	416.04
641.092	431.36
641.433	331.78
641.775	375.19
642.116	334.33
642.458	385.4
642.799	398.17
643.141	380.29
643.482	436.47
643.823	416.04
644.164	390.51
644.506	444.13
644.847	362.42
645.188	400.72
645.529	354.76
645.87	367.53
646.211	395.61
646.552	405.83
646.893	433.91
647.233	416.04
647.574	362.42
647.915	354.76
648.255	359.87
648.596	431.36
648.937	395.61
649.277	375.19
649.618	359.87
649.958	393.06
650.298	387.95
650.639	380.29
650.979	456.9
651.319	387.95
651.659	385.4
651.999	393.06
652.339	331.78
652.679	395.61
653.019	372.63
653.359	319.01
653.699	370.08
654.039	313.91
654.379	339.44
654.719	385.4
655.058	362.42
655.398	433.91
655.737	482.43
656.077	418.59
656.416	467.11
656.756	370.08
657.095	364.97
657.435	382.85
657.774	459.45
658.113	395.61
658.452	331.78
658.792	405.83
659.131	400.72
659.47	433.91
659.809	400.72
660.148	405.83
660.487	364.97
660.826	336.89
661.164	370.08
661.503	403.27
661.842	405.83
662.181	400.72
662.519	382.85
662.858	408.38
663.196	421.15
663.535	390.51
663.873	372.63
664.212	405.83
664.55	398.17
664.888	393.06
665.226	403.27
665.565	313.91
665.903	599.88
666.241	347.1
666.579	390.51
666.917	395.61
667.255	370.08
667.593	339.44
667.931	311.35
668.268	362.42
668.606	359.87
668.944	454.34
669.282	357.31
669.619	395.61
669.957	385.4
670.294	398.17
670.632	426.25
670.969	418.59
671.307	339.44
671.644	410.93
671.981	444.13
672.318	375.19
672.656	413.49
672.993	357.31
673.33	382.85
673.667	359.87
674.004	410.93
674.341	375.19
674.678	352.21
675.015	395.61
675.351	393.06
675.688	408.38
676.025	375.19
676.362	405.83
676.698	339.44
677.035	431.36
677.371	341.99
677.708	375.19
678.044	334.33
678.38	418.59
678.717	362.42
679.053	380.29
679.389	308.8
679.725	390.51
680.062	357.31
680.398	441.57
680.734	403.27
681.07	418.59
681.406	382.85
681.742	362.42
682.077	459.45
682.413	431.36
682.749	413.49
683.085	380.29
683.42	375.19
683.756	393.06
684.091	433.91
684.427	380.29
684.762	372.63
685.098	308.8
685.433	380.29
685.768	339.44
686.104	382.85
686.439	359.87
686.774	433.91
687.109	418.59
687.444	423.7
687.779	395.61
688.114	387.95
688.449	395.61
688.784	408.38
689.119	446.68
689.454	385.4
689.789	418.59
690.123	405.83
690.458	444.13
690.792	380.29
691.127	375.19
691.461	357.31
691.796	410.93
692.13	324.12
692.465	377.74
692.799	405.83
693.133	398.17
693.467	387.95
693.802	446.68
694.136	387.95
694.47	421.15
694.804	357.31
695.138	382.85
695.472	456.9
695.806	331.78
696.139	377.74
696.473	387.95
696.807	395.61
697.141	405.83
697.474	395.61
697.808	393.06
698.141	454.34
698.475	405.83
698.808	410.93
699.142	364.97
699.475	416.04
699.808	426.25
700.142	380.29
700.475	326.67
700.808	375.19
701.141	375.19
701.474	416.04
701.807	352.21
702.14	336.89
702.473	319.01
702.806	370.08
703.139	390.51
703.472	410.93
703.804	347.1
704.137	393.06
704.47	387.95
704.802	387.95
705.135	352.21
705.467	393.06
705.8	405.83
706.132	387.95
706.464	362.42
706.797	426.25
707.129	380.29
707.461	308.8
707.793	377.74
708.125	364.97
708.457	380.29
708.789	398.17
709.121	362.42
709.453	336.89
709.785	380.29
710.117	398.17
710.449	423.7
710.781	467.11
711.112	423.7
711.444	387.95
711.775	372.63
712.107	405.83
712.438	385.4
712.77	400.72
713.101	367.53
713.433	370.08
713.764	334.33
714.095	426.25
714.426	331.78
714.757	428.81
715.089	326.67
715.42	421.15
715.751	303.69
716.082	364.97
716.412	413.49
716.743	393.06
717.074	331.78
717.405	421.15
717.736	400.72
718.066	431.36
718.397	380.29
718.727	339.44
719.058	382.85
719.388	372.63
719.719	357.31
720.049	428.81
720.38	408.38
720.71	380.29
721.04	319.01
721.37	326.67
721.7	398.17
722.031	418.59
722.361	459.45
722.691	367.53
723.021	408.38
723.35	398.17
723.68	367.53
724.01	403.27
724.34	444.13
724.67	387.95
724.999	357.31
725.329	398.17
725.658	395.61
725.988	395.61
726.317	367.53
726.647	336.89
726.976	372.63
727.306	370.08
727.635	400.72
727.964	311.35
728.293	321.57
728.622	375.19
728.952	372.63
729.281	403.27
729.61	364.97
729.939	405.83
730.267	395.61
730.596	405.83
730.925	405.83
731.254	400.72
731.583	410.93
731.911	436.47
732.24	421.15
732.568	380.29
732.897	347.1
733.225	418.59
733.554	405.83
733.882	377.74
734.21	362.42
734.539	382.85
734.867	372.63
735.195	395.61
735.523	428.81
735.851	359.87
736.179	364.97
736.507	385.4
736.835	364.97
737.163	382.85
737.491	423.7
737.819	354.76
738.147	395.61
738.474	421.15
738.802	462
739.13	426.25
739.457	385.4
739.785	405.83
740.112	377.74
740.44	362.42
740.767	400.72
741.094	436.47
741.422	390.51
741.749	372.63
742.076	370.08
742.403	403.27
742.73	462
743.057	336.89
743.384	324.12
743.711	387.95
744.038	370.08
744.365	413.49
744.692	341.99
745.018	395.61
745.345	423.7
745.672	367.53
745.998	339.44
746.325	385.4
746.651	359.87
746.978	390.51
747.304	367.53
747.631	393.06
747.957	421.15
748.283	306.25
748.61	387.95
748.936	296.03
749.262	359.87
749.588	336.89
749.914	367.53
750.24	382.85
750.566	403.27
750.892	464.56
751.218	413.49
751.543	393.06
751.869	359.87
752.195	400.72
752.521	375.19
752.846	349.65
753.172	349.65
753.497	403.27
753.823	423.7
754.148	507.96
754.473	398.17
754.799	439.02
755.124	456.9
755.449	436.47
755.774	400.72
756.1	413.49
756.425	352.21
756.75	375.19
757.075	416.04
757.4	469.66
757.724	390.51
758.049	400.72
758.374	446.68
758.699	395.61
759.024	439.02
759.348	428.81
759.673	393.06
759.997	354.76
760.322	385.4
760.646	382.85
760.971	408.38
761.295	431.36
761.619	400.72
761.944	451.79
762.268	456.9
762.592	449.23
762.916	454.34
763.24	433.91
763.564	484.98
763.888	492.64
764.212	515.62
764.536	543.71
764.86	574.35
765.184	594.78
765.508	643.29
765.831	604.99
766.155	883.31
766.478	776.07
766.802	668.83
767.126	755.64
767.449	827.13
767.772	906.29
768.096	970.12
768.419	921.61
768.742	1041.62
769.066	1005.87
769.389	1023.74
769.712	1077.37
770.035	1051.83
770.358	1108.01
770.681	1187.16
771.004	1245.89
771.327	1222.91
771.65	1368.45
771.972	1396.54
772.295	1419.52
772.618	1404.2
772.941	1508.89
773.263	1521.65
773.586	1539.53
773.908	1644.22
774.231	1687.62
774.553	1805.08
774.875	1986.37
775.198	1897
775.52	1853.59
775.842	1838.27
776.164	1799.97
776.487	1794.87
776.809	1881.68
777.131	1881.68
777.453	1858.7
777.775	1868.91
778.096	2050.2
778.418	2129.36
778.74	1945.51
779.062	2052.76
779.384	2124.25
779.705	2525.13
780.027	2663.01
780.348	2693.65
780.67	2568.54
780.991	2767.7
781.313	3099.64
781.634	3143.05
781.955	2943.89
782.277	2872.39
782.598	2895.37
782.919	2903.03
783.24	2903.03
783.561	2956.65
783.882	2823.88
784.203	2846.86
784.524	2859.62
784.845	2854.52
785.166	2555.77
785.487	2678.33
785.807	2678.33
786.128	2563.43
786.449	2565.99
786.769	2634.93
787.09	2655.35
787.41	2859.62
787.731	3125.18
788.051	3380.51
788.372	3303.91
788.692	3692.03
789.012	3743.09
789.332	3829.91
789.653	3947.36
789.973	4143.97
790.293	3888.64
790.613	3531.16
790.933	3298.8
791.253	3178.8
791.573	2964.31
791.893	2918.35
792.212	2800.9
792.532	2650.25
792.852	2645.14
793.171	2486.83
793.491	2479.17
793.811	2445.98
794.13	2458.74
794.45	2476.62
794.769	2489.38
795.088	2734.51
795.408	2821.32
795.727	2933.67
796.046	2800.9
796.365	2565.99
796.684	2407.68
797.004	2466.4
797.323	2553.22
797.642	2905.58
797.96	2849.41
798.279	2749.83
798.598	2565.99
798.917	2502.15
799.236	2356.61
799.554	2348.95
799.873	2236.6
800.192	2205.96
800.51	2231.49
800.829	2208.51
801.147	2231.49
801.466	2017.01
801.784	2057.86
802.102	1999.14
802.421	2083.4
802.739	2259.58
803.057	2177.87
803.375	1927.64
803.693	1942.96
804.011	1960.83
804.329	2149.78
804.647	2098.72
804.965	1983.82
805.283	1863.81
805.601	1858.7
805.918	1815.29
806.236	1595.7
806.554	1669.75
806.871	1805.08
807.189	1817.85
807.507	1922.53
807.824	1894.45
808.141	1616.13
808.459	1457.82
808.776	1307.17
809.093	1159.07
809.411	1095.24
809.728	1143.75
810.045	1156.52
810.362	1123.33
810.679	1182.05
810.996	1199.93
811.313	1261.21
811.63	1235.68
811.947	1179.5
812.264	1192.27
812.58	1095.24
812.897	1146.31
813.214	1143.75
813.53	1085.03
813.847	1253.55
814.163	1240.78
814.48	1235.68
814.796	1148.86
815.113	1159.07
815.429	1033.96
815.745	993.1
816.061	1113.11
816.378	972.68
816.694	1110.56
817.01	1000.76
817.326	1067.15
817.642	939.48
817.958	970.12
818.274	788.83
818.59	847.56
818.905	763.3
819.221	781.17
819.537	832.24
819.852	806.71
820.168	857.78
820.484	824.58
820.799	870.54
821.115	839.9
821.43	750.53
821.745	770.96
822.061	742.87
822.376	842.46
822.691	745.43
823.006	768.41
823.322	681.59
823.637	737.77
823.952	722.45
824.267	602.44
824.582	684.15
824.897	599.88
825.211	592.22
825.526	661.17
825.841	612.65
826.156	592.22
826.47	553.92
826.785	582.01
827.1	584.56
827.414	525.84
827.729	587.12
828.043	627.97
828.357	536.05
828.672	582.01
828.986	543.71
829.3	548.82
829.614	594.78
829.929	656.06
830.243	587.12
830.557	484.98
830.871	543.71
831.185	561.58
831.499	536.05
831.812	518.18
832.126	538.6
832.44	541.16
832.754	520.73
833.067	538.6
833.381	482.43
833.695	518.18
834.008	495.2
834.322	469.66
834.635	492.64
834.948	469.66
835.262	436.47
835.575	472.22
835.888	408.38
836.201	464.56
836.515	454.34
836.828	405.83
837.141	403.27
837.454	418.59
837.767	477.32
838.08	421.15
838.392	487.54
838.705	410.93
839.018	428.81
839.331	400.72
839.643	459.45
839.956	405.83
840.269	393.06
840.581	449.23
840.894	515.62
841.206	433.91
841.519	574.35
841.831	400.72
842.143	367.53
842.455	395.61
842.768	416.04
843.08	413.49
843.392	377.74
843.704	367.53
844.016	395.61
844.328	441.57
844.64	405.83
844.952	398.17
845.263	326.67
845.575	400.72
845.887	270.5
846.199	462
846.51	413.49
846.822	398.17
847.133	377.74
847.445	364.97
847.756	393.06
848.068	313.91
848.379	433.91
848.69	347.1
849.002	380.29
849.313	370.08
849.624	380.29
849.935	339.44
850.246	418.59
850.557	439.02
850.868	393.06
851.179	423.7
851.49	367.53
851.801	418.59
852.112	423.7
852.422	370.08
852.733	390.51
853.044	433.91
853.354	418.59
853.665	349.65
853.975	382.85
854.286	331.78
854.596	390.51
854.906	408.38
855.217	413.49
855.527	451.79
855.837	380.29
856.147	459.45
856.458	393.06
856.768	395.61
857.078	413.49
857.388	352.21
857.698	428.81
858.007	400.72
858.317	375.19
858.627	390.51
858.937	354.76
859.246	352.21
859.556	382.85
859.866	395.61
860.175	382.85
860.485	354.76
860.794	293.48
861.104	298.59
861.413	324.12
861.722	380.29
862.032	426.25
862.341	416.04
862.65	433.91
862.959	441.57
863.268	398.17
863.577	370.08
863.886	359.87
864.195	262.84
864.504	510.52
864.813	449.23
865.122	413.49
865.43	352.21
865.739	380.29
866.048	393.06
866.356	387.95
866.665	364.97
866.973	395.61
867.282	413.49
867.59	405.83
867.899	387.95
868.207	395.61
868.515	380.29
868.823	421.15
869.132	405.83
869.44	408.38
869.748	380.29
870.056	418.59
870.364	398.17
870.672	344.55
870.98	377.74
871.288	403.27
871.595	341.99
871.903	352.21
872.211	349.65
872.518	423.7
872.826	405.83
873.134	370.08
873.441	359.87
873.749	413.49
874.056	400.72
874.363	334.33
874.671	418.59
874.978	372.63
875.285	370.08
875.592	423.7
875.9	344.55
876.207	372.63
876.514	354.76
876.821	387.95
877.128	344.55
877.435	359.87
877.741	313.91
878.048	370.08
878.355	413.49
878.662	441.57
878.968	326.67
879.275	364.97
879.582	341.99
879.888	344.55
880.195	336.89
880.501	382.85
880.807	364.97
881.114	410.93
881.42	390.51
881.726	357.31
882.032	370.08
882.339	400.72
882.645	403.27
882.951	398.17
883.257	321.57
883.563	357.31
883.869	413.49
884.174	421.15
884.48	377.74
884.786	400.72
885.092	377.74
885.397	308.8
885.703	382.85
886.009	362.42
886.314	367.53
886.62	336.89
886.925	336.89
887.231	395.61
887.536	385.4
887.841	382.85
888.146	387.95
888.452	459.45
888.757	344.55
889.062	334.33
889.367	390.51
889.672	331.78
889.977	377.74
890.282	390.51
890.587	421.15
890.892	418.59
891.196	416.04
891.501	347.1
891.806	423.7
892.11	413.49
892.415	408.38
892.72	370.08
893.024	393.06
893.328	410.93
893.633	451.79
893.937	367.53
894.242	398.17
894.546	421.15
894.85	418.59
895.154	398.17
895.458	413.49
895.762	428.81
896.066	341.99
896.37	403.27
896.674	336.89
896.978	385.4
897.282	418.59
897.586	364.97
897.89	472.22
898.193	372.63
898.497	431.36
898.801	341.99
899.104	416.04
899.408	357.31
899.711	354.76
900.014	362.42
900.318	405.83
900.621	359.87
900.924	372.63
901.228	395.61
901.531	395.61
901.834	344.55
902.137	357.31
902.44	395.61
902.743	421.15
903.046	354.76
903.349	426.25
903.652	464.56
903.955	421.15
904.257	336.89
904.56	431.36
904.863	421.15
905.165	370.08
905.468	418.59
905.77	382.85
906.073	372.63
906.375	372.63
906.678	413.49
906.98	387.95
907.282	400.72
907.584	375.19
907.887	375.19
908.189	421.15
908.491	454.34
908.793	428.81
909.095	344.55
909.397	308.8
909.699	377.74
910.001	344.55
910.302	398.17
910.604	390.51
910.906	357.31
911.208	347.1
911.509	405.83
911.811	393.06
912.112	382.85
912.414	296.03
912.715	336.89
913.017	380.29
913.318	334.33
913.619	390.51
913.92	387.95
914.222	352.21
914.523	357.31
914.824	405.83
915.125	362.42
915.426	418.59
915.727	380.29
916.028	418.59
916.329	375.19
916.63	436.47
916.93	372.63
917.231	372.63
917.532	439.02
917.832	385.4
918.133	349.65
918.434	359.87
918.734	380.29
919.034	347.1
919.335	451.79
919.635	387.95
919.935	408.38
920.236	372.63
920.536	382.85
920.836	331.78
921.136	321.57
921.436	439.02
921.736	405.83
922.036	344.55
922.336	370.08
922.636	380.29
922.936	326.67
923.236	349.65
923.535	390.51
923.835	341.99
924.135	387.95
924.434	403.27
924.734	387.95
925.033	444.13
925.333	370.08
925.632	372.63
925.932	375.19
926.231	433.91
926.53	385.4
926.83	377.74
927.129	370.08
927.428	441.57
927.727	375.19
928.026	380.29
928.325	413.49
928.624	403.27
928.923	352.21
929.222	410.93
929.52	418.59
929.819	385.4
930.118	385.4
930.417	339.44
930.715	352.21
931.014	408.38
931.312	462
931.611	421.15
931.909	316.46
932.207	380.29
932.506	413.49
932.804	367.53
933.102	372.63
933.401	418.59
933.699	336.89
933.997	400.72
934.295	449.23
934.593	416.04
934.891	377.74
935.189	372.63
935.487	418.59
935.784	408.38
936.082	410.93
936.38	393.06
936.677	431.36
936.975	423.7
937.273	362.42
937.57	387.95
937.868	364.97
938.165	377.74
938.463	385.4
938.76	354.76
939.057	316.46
939.354	354.76
939.652	357.31
939.949	370.08
940.246	334.33
940.543	377.74
940.84	385.4
941.137	377.74
941.434	341.99
941.731	359.87
942.028	408.38
942.324	354.76
942.621	296.03
942.918	410.93
943.214	403.27
943.511	357.31
943.807	405.83
944.104	362.42
944.4	403.27
944.697	339.44
944.993	265.39
945.29	334.33
945.586	354.76
945.882	344.55
946.178	418.59
946.474	403.27
946.77	364.97
947.066	354.76
947.362	410.93
947.658	408.38
947.954	400.72
948.25	410.93
948.546	385.4
948.842	413.49
949.137	362.42
949.433	393.06
949.729	382.85
950.024	344.55
950.32	441.57
950.615	354.76
950.91	380.29
951.206	390.51
951.501	431.36
951.796	403.27
952.092	421.15
952.387	449.23
952.682	408.38
952.977	393.06
953.272	405.83
953.567	418.59
953.862	367.53
954.157	377.74
954.452	319.01
954.747	385.4
955.041	347.1
955.336	326.67
955.631	408.38
955.925	362.42
956.22	344.55
956.514	393.06
956.809	449.23
957.103	454.34
957.398	410.93
957.692	395.61
957.986	421.15
958.281	418.59
958.575	375.19
958.869	331.78
959.163	359.87
959.457	377.74
959.751	398.17
960.045	324.12
960.339	400.72
960.633	387.95
960.927	454.34
961.221	398.17
961.514	405.83
961.808	393.06
962.102	326.67
962.395	400.72
962.689	306.25
962.982	329.23
963.276	370.08
963.569	423.7
963.862	367.53
964.156	398.17
964.449	418.59
964.742	403.27
965.035	354.76
965.328	357.31
965.622	413.49
965.915	367.53
966.208	329.23
966.5	390.51
966.793	362.42
967.086	426.25
967.379	423.7
967.672	403.27
967.964	336.89
968.257	293.48
968.55	405.83
968.842	329.23
969.135	319.01
969.427	372.63
969.72	354.76
970.012	380.29
970.304	464.56
970.597	403.27
970.889	390.51
971.181	410.93
971.473	357.31
971.765	446.68
972.057	385.4
972.349	398.17
972.641	413.49
972.933	387.95
973.225	431.36
973.517	441.57
973.809	387.95
974.1	385.4
974.392	357.31
974.684	454.34
974.975	382.85
975.267	362.42
975.558	410.93
975.85	393.06
976.141	410.93
976.432	436.47
976.724	364.97
977.015	382.85
977.306	395.61
977.597	428.81
977.888	349.65
978.179	400.72
978.47	451.79
978.761	324.12
979.052	331.78
979.343	326.67
979.634	331.78
979.925	336.89
980.215	283.27
980.506	359.87
980.797	464.56
981.087	390.51
981.378	403.27
981.668	502.86
981.959	408.38
982.249	354.76
982.54	408.38
982.83	380.29
983.12	362.42
983.41	408.38
983.701	405.83
983.991	367.53
984.281	439.02
984.571	410.93
984.861	352.21
985.151	400.72
985.441	357.31
985.73	321.57
986.02	362.42
986.31	441.57
986.6	387.95
986.889	520.73
987.179	380.29
987.469	390.51
987.758	387.95
988.048	377.74
988.337	382.85
988.626	331.78
988.916	341.99
989.205	393.06
989.494	372.63
989.783	385.4
990.073	339.44
990.362	441.57
990.651	344.55
990.94	329.23
991.229	400.72
991.518	362.42
991.806	341.99
992.095	375.19
992.384	347.1
992.673	403.27
992.961	359.87
993.25	339.44
993.539	405.83
993.827	372.63
994.116	395.61
994.404	341.99
994.692	408.38
994.981	400.72
995.269	370.08
995.557	324.12
995.846	375.19
996.134	372.63
996.422	428.81
996.71	387.95
996.998	405.83
997.286	385.4
997.574	426.25
997.862	413.49
998.15	347.1
998.437	380.29
998.725	380.29
999.013	354.76
999.3	380.29
999.588	403.27
999.876	454.34
1000.163	377.74
1000.45	349.65
1000.738	362.42
1001.025	421.15
1001.313	370.08
1001.6	377.74
1001.887	418.59
1002.174	380.29
1002.461	367.53
1002.748	408.38
1003.036	377.74
1003.322	393.06
1003.609	398.17
1003.896	387.95
1004.183	413.49
1004.47	439.02
1004.757	400.72
1005.043	377.74
1005.33	439.02
1005.617	405.83
1005.903	428.81
1006.19	362.42
1006.476	331.78
1006.763	336.89
1007.049	426.25
1007.335	321.57
1007.622	446.68
1007.908	390.51
1008.194	393.06
1008.48	436.47
1008.766	364.97
1009.053	324.12
1009.339	362.42
1009.625	431.36
1009.91	446.68
1010.196	385.4
1010.482	334.33
1010.768	426.25
1011.054	372.63
1011.339	390.51
1011.625	395.61
1011.911	319.01
1012.196	364.97
1012.482	400.72
1012.767	382.85
1013.052	375.19
1013.338	393.06
1013.623	385.4
1013.908	408.38
1014.194	400.72
1014.479	395.61
1014.764	395.61
1015.049	339.44
1015.334	372.63
1015.619	393.06
1015.904	380.29
1016.189	375.19
1016.474	352.21
1016.758	370.08
1017.043	354.76
1017.328	393.06
1017.613	410.93
1017.897	375.19
1018.182	418.59
1018.466	390.51
1018.751	359.87
1019.035	449.23
1019.32	334.33
1019.604	418.59
1019.888	413.49
1020.172	413.49
1020.457	413.49
