Data from 2025-12-03_xpw_interference_micrometer_634_reference_FLMS141361__155__405.txt Node

Date: Wed Dec 03 15:51:28 MST 2025
User: james
Spectrometer: FLMS14136
Trigger mode: 0
Integration Time (sec): 1.000000E-1
Scans to average: 1
Electric dark correction enabled: true
Nonlinearity correction enabled: false
Boxcar width: 0
XAxis mode: Wavelengths
Number of Pixels in Spectrum: 2048
>>>>>Begin Spectral Data<<<<<
339.315	-76.6
339.697	-76.6
340.079	-76.6
340.461	-86.81
340.843	-68.94
341.225	-109.8
341.607	-91.92
341.989	-79.15
342.371	-99.58
342.752	-58.73
343.134	-17.87
343.516	-51.07
343.897	-53.62
344.279	-53.62
344.661	-33.19
345.042	63.83
345.423	76.6
345.805	97.03
346.186	61.28
346.567	178.74
346.949	171.08
347.33	181.29
347.711	247.68
348.092	285.98
348.473	222.14
348.854	255.34
349.235	280.87
349.616	273.21
349.997	270.66
350.378	296.19
350.758	388.11
351.139	411.09
351.52	418.75
351.9	370.24
352.281	393.22
352.661	372.79
353.042	385.56
353.422	403.43
353.803	390.67
354.183	411.09
354.563	380.45
354.943	357.47
355.324	370.24
355.704	385.56
356.084	395.77
356.464	416.2
356.844	408.54
357.224	339.6
357.603	413.65
357.983	418.75
358.363	474.93
358.743	383.01
359.122	416.2
359.502	385.56
359.882	326.83
360.261	390.67
360.641	334.49
361.02	342.15
361.399	301.3
361.779	367.69
362.158	385.56
362.537	352.37
362.916	354.92
363.296	360.03
363.675	326.83
364.054	383.01
364.433	303.85
364.812	393.22
365.19	354.92
365.569	352.37
365.948	421.31
366.327	316.62
366.705	314.07
367.084	357.47
367.463	405.99
367.841	339.6
368.22	434.07
368.598	413.65
368.977	337.05
369.355	372.79
369.733	354.92
370.111	375.35
370.49	400.88
370.868	377.9
371.246	303.85
371.624	342.15
372.002	321.73
372.38	339.6
372.758	331.94
373.136	331.94
373.513	390.67
373.891	411.09
374.269	354.92
374.646	354.92
375.024	329.39
375.402	349.81
375.779	365.13
376.157	362.58
376.534	372.79
376.911	380.45
377.289	390.67
377.666	326.83
378.043	329.39
378.42	395.77
378.797	385.56
379.175	354.92
379.552	398.33
379.929	375.35
380.305	372.79
380.682	372.79
381.059	347.26
381.436	337.05
381.813	357.47
382.189	344.71
382.566	390.67
382.943	383.01
383.319	337.05
383.696	362.58
384.072	347.26
384.448	365.13
384.825	303.85
385.201	383.01
385.577	365.13
385.953	331.94
386.329	388.11
386.706	331.94
387.082	375.35
387.458	372.79
387.834	375.35
388.209	337.05
388.585	400.88
388.961	280.87
389.337	375.35
389.713	362.58
390.088	342.15
390.464	354.92
390.839	360.03
391.215	413.65
391.59	365.13
391.966	416.2
392.341	372.79
392.716	375.35
393.092	421.31
393.467	331.94
393.842	418.75
394.217	411.09
394.592	352.37
394.967	349.81
395.342	319.17
395.717	352.37
396.092	308.96
396.467	446.84
396.841	385.56
397.216	390.67
397.591	334.49
397.965	375.35
398.34	347.26
398.714	337.05
399.089	324.28
399.463	316.62
399.838	357.47
400.212	331.94
400.586	377.9
400.961	377.9
401.335	352.37
401.709	367.69
402.083	395.77
402.457	428.97
402.831	408.54
403.205	411.09
403.579	408.54
403.953	367.69
404.326	428.97
404.7	383.01
405.074	390.67
405.447	388.11
405.821	418.75
406.195	388.11
406.568	451.95
406.942	508.12
407.315	347.26
407.688	367.69
408.062	428.97
408.435	339.6
408.808	347.26
409.181	367.69
409.554	377.9
409.927	398.33
410.3	365.13
410.673	413.65
411.046	377.9
411.419	342.15
411.792	388.11
412.165	367.69
412.537	380.45
412.91	362.58
413.283	360.03
413.655	408.54
414.028	393.22
414.4	319.17
414.773	400.88
415.145	385.56
415.517	388.11
415.889	390.67
416.262	426.41
416.634	339.6
417.006	337.05
417.378	469.82
417.75	431.52
418.122	408.54
418.494	365.13
418.866	393.22
419.238	367.69
419.609	411.09
419.981	352.37
420.353	428.97
420.725	395.77
421.096	444.29
421.468	400.88
421.839	431.52
422.211	367.69
422.582	408.54
422.953	421.31
423.325	380.45
423.696	400.88
424.067	377.9
424.438	377.9
424.809	390.67
425.18	390.67
425.551	446.84
425.922	428.97
426.293	377.9
426.664	375.35
427.035	405.99
427.406	428.97
427.776	362.58
428.147	367.69
428.518	357.47
428.888	372.79
429.259	326.83
429.629	431.52
429.999	321.73
430.37	362.58
430.74	298.75
431.11	428.97
431.481	431.52
431.851	360.03
432.221	360.03
432.591	431.52
432.961	377.9
433.331	370.24
433.701	457.05
434.071	421.31
434.441	431.52
434.81	418.75
435.18	426.41
435.55	377.9
435.919	390.67
436.289	436.63
436.658	480.04
437.028	398.33
437.397	337.05
437.767	349.81
438.136	367.69
438.505	331.94
438.875	337.05
439.244	383.01
439.613	385.56
439.982	377.9
440.351	360.03
440.72	418.75
441.089	421.31
441.458	367.69
441.827	464.71
442.196	329.39
442.564	510.68
442.933	416.2
443.302	403.43
443.67	411.09
444.039	441.73
444.407	408.54
444.776	347.26
445.144	411.09
445.513	365.13
445.881	482.59
446.249	428.97
446.617	342.15
446.986	390.67
447.354	423.86
447.722	421.31
448.09	439.18
448.458	436.63
448.826	436.63
449.194	370.24
449.561	360.03
449.929	372.79
450.297	408.54
450.665	418.75
451.032	441.73
451.4	446.84
451.767	441.73
452.135	434.07
452.502	444.29
452.87	421.31
453.237	367.69
453.604	365.13
453.971	370.24
454.339	339.6
454.706	421.31
455.073	469.82
455.44	434.07
455.807	405.99
456.174	400.88
456.541	349.81
456.908	403.43
457.274	431.52
457.641	444.29
458.008	421.31
458.374	390.67
458.741	360.03
459.108	385.56
459.474	405.99
459.841	370.24
460.207	405.99
460.573	421.31
460.94	357.47
461.306	383.01
461.672	431.52
462.038	418.75
462.404	462.16
462.771	444.29
463.137	411.09
463.503	436.63
463.868	362.58
464.234	339.6
464.6	426.41
464.966	431.52
465.332	367.69
465.697	375.35
466.063	395.77
466.429	428.97
466.794	354.92
467.16	362.58
467.525	383.01
467.89	347.26
468.256	408.54
468.621	372.79
468.986	411.09
469.351	360.03
469.717	439.18
470.082	306.41
470.447	375.35
470.812	426.41
471.177	411.09
471.542	423.86
471.906	357.47
472.271	418.75
472.636	367.69
473.001	375.35
473.365	431.52
473.73	428.97
474.094	403.43
474.459	367.69
474.823	377.9
475.188	390.67
475.552	352.37
475.917	477.48
476.281	372.79
476.645	347.26
477.009	431.52
477.373	431.52
477.737	434.07
478.101	492.8
478.465	403.43
478.829	395.77
479.193	370.24
479.557	411.09
479.921	385.56
480.284	431.52
480.648	372.79
481.012	385.56
481.375	431.52
481.739	398.33
482.102	390.67
482.466	441.73
482.829	500.46
483.193	426.41
483.556	495.36
483.919	416.2
484.282	385.56
484.645	321.73
485.009	403.43
485.372	375.35
485.735	321.73
486.098	449.39
486.46	405.99
486.823	380.45
487.186	428.97
487.549	385.56
487.912	347.26
488.274	377.9
488.637	405.99
488.999	439.18
489.362	398.33
489.724	413.65
490.087	403.43
490.449	418.75
490.811	377.9
491.174	362.58
491.536	405.99
491.898	426.41
492.26	439.18
492.622	408.54
492.984	400.88
493.346	398.33
493.708	388.11
494.07	403.43
494.432	469.82
494.794	405.99
495.155	428.97
495.517	418.75
495.879	441.73
496.24	398.33
496.602	408.54
496.963	398.33
497.325	398.33
497.686	400.88
498.048	372.79
498.409	439.18
498.77	342.15
499.131	408.54
499.492	354.92
499.854	416.2
500.215	372.79
500.576	477.48
500.937	485.14
501.298	398.33
501.658	469.82
502.019	416.2
502.38	428.97
502.741	436.63
503.101	423.86
503.462	388.11
503.823	403.43
504.183	510.68
504.543	418.75
504.904	390.67
505.264	377.9
505.625	349.81
505.985	464.71
506.345	367.69
506.705	385.56
507.065	413.65
507.426	467.27
507.786	349.81
508.146	423.86
508.505	388.11
508.865	421.31
509.225	393.22
509.585	467.27
509.945	451.95
510.304	480.04
510.664	436.63
511.024	431.52
511.383	439.18
511.743	380.45
512.102	372.79
512.462	439.18
512.821	395.77
513.18	449.39
513.539	431.52
513.899	395.77
514.258	388.11
514.617	444.29
514.976	388.11
515.335	375.35
515.694	362.58
516.053	428.97
516.412	385.56
516.771	377.9
517.129	408.54
517.488	395.77
517.847	428.97
518.205	403.43
518.564	398.33
518.922	377.9
519.281	388.11
519.639	423.86
519.998	436.63
520.356	388.11
520.714	393.22
521.073	423.86
521.431	380.45
521.789	428.97
522.147	418.75
522.505	457.05
522.863	344.71
523.221	375.35
523.579	388.11
523.937	388.11
524.295	439.18
524.652	362.58
525.01	398.33
525.368	377.9
525.725	367.69
526.083	372.79
526.44	354.92
526.798	316.62
527.155	413.65
527.513	372.79
527.87	324.28
528.227	398.33
528.584	449.39
528.942	441.73
529.299	380.45
529.656	485.14
530.013	383.01
530.37	403.43
530.727	446.84
531.083	426.41
531.44	375.35
531.797	405.99
532.154	365.13
532.511	393.22
532.867	347.26
533.224	377.9
533.58	434.07
533.937	413.65
534.293	395.77
534.65	418.75
535.006	388.11
535.362	462.16
535.718	385.56
536.075	444.29
536.431	413.65
536.787	403.43
537.143	472.37
537.499	393.22
537.855	405.99
538.211	344.71
538.567	360.03
538.923	472.37
539.278	421.31
539.634	439.18
539.99	428.97
540.345	411.09
540.701	385.56
541.056	395.77
541.412	367.69
541.767	372.79
542.123	395.77
542.478	383.01
542.833	383.01
543.188	454.5
543.544	436.63
543.899	403.43
544.254	385.56
544.609	441.73
544.964	426.41
545.319	408.54
545.674	411.09
546.029	403.43
546.383	446.84
546.738	393.22
547.093	342.15
547.447	390.67
547.802	400.88
548.157	398.33
548.511	497.91
548.866	416.2
549.22	482.59
549.574	349.81
549.929	337.05
550.283	454.5
550.637	367.69
550.991	370.24
551.345	482.59
551.699	428.97
552.053	400.88
552.407	434.07
552.761	421.31
553.115	436.63
553.469	449.39
553.823	400.88
554.176	385.56
554.53	354.92
554.884	428.97
555.237	617.92
555.591	436.63
555.944	423.86
556.298	403.43
556.651	393.22
557.005	462.16
557.358	434.07
557.711	446.84
558.064	314.07
558.417	380.45
558.771	554.08
559.124	477.48
559.477	428.97
559.83	418.75
560.182	385.56
560.535	390.67
560.888	393.22
561.241	413.65
561.594	367.69
561.946	367.69
562.299	395.77
562.651	370.24
563.004	451.95
563.356	398.33
563.709	434.07
564.061	388.11
564.413	411.09
564.766	334.49
565.118	326.83
565.47	421.31
565.822	393.22
566.174	405.99
566.526	434.07
566.878	367.69
567.23	421.31
567.582	390.67
567.934	326.83
568.286	462.16
568.638	393.22
568.989	400.88
569.341	370.24
569.693	342.15
570.044	390.67
570.396	360.03
570.747	421.31
571.098	477.48
571.45	426.41
571.801	360.03
572.152	421.31
572.504	411.09
572.855	408.54
573.206	398.33
573.557	390.67
573.908	385.56
574.259	426.41
574.61	403.43
574.961	383.01
575.311	426.41
575.662	449.39
576.013	388.11
576.364	354.92
576.714	462.16
577.065	398.33
577.415	398.33
577.766	418.75
578.116	398.33
578.467	344.71
578.817	444.29
579.167	454.5
579.518	388.11
579.868	413.65
580.218	403.43
580.568	441.73
580.918	380.45
581.268	326.83
581.618	334.49
581.968	365.13
582.318	365.13
582.668	390.67
583.017	480.04
583.367	372.79
583.717	423.86
584.066	398.33
584.416	431.52
584.765	428.97
585.115	385.56
585.464	451.95
585.814	388.11
586.163	385.56
586.512	413.65
586.862	413.65
587.211	467.27
587.56	439.18
587.909	428.97
588.258	431.52
588.607	395.77
588.956	423.86
589.305	362.58
589.654	383.01
590.002	354.92
590.351	372.79
590.7	395.77
591.048	441.73
591.397	416.2
591.746	418.75
592.094	436.63
592.443	362.58
592.791	416.2
593.139	357.47
593.488	367.69
593.836	449.39
594.184	426.41
594.532	393.22
594.88	480.04
595.228	331.94
595.576	434.07
595.924	383.01
596.272	354.92
596.62	444.29
596.968	416.2
597.316	370.24
597.664	441.73
598.011	439.18
598.359	380.45
598.706	372.79
599.054	411.09
599.402	446.84
599.749	444.29
600.096	441.73
600.444	395.77
600.791	354.92
601.138	362.58
601.485	385.56
601.833	405.99
602.18	464.71
602.527	367.69
602.874	400.88
603.221	408.54
603.568	362.58
603.914	380.45
604.261	377.9
604.608	390.67
604.955	362.58
605.301	436.63
605.648	395.77
605.995	439.18
606.341	426.41
606.688	421.31
607.034	362.58
607.38	367.69
607.727	418.75
608.073	428.97
608.419	380.45
608.765	395.77
609.112	408.54
609.458	398.33
609.804	388.11
610.15	467.27
610.496	423.86
610.842	423.86
611.187	383.01
611.533	428.97
611.879	398.33
612.225	416.2
612.57	354.92
612.916	405.99
613.261	464.71
613.607	393.22
613.952	490.25
614.298	454.5
614.643	393.22
614.989	416.2
615.334	462.16
615.679	403.43
616.024	441.73
616.369	385.56
616.714	357.47
617.059	421.31
617.404	344.71
617.749	457.05
618.094	434.07
618.439	393.22
618.784	370.24
619.129	444.29
619.473	413.65
619.818	349.81
620.163	436.63
620.507	395.77
620.852	411.09
621.196	400.88
621.54	436.63
621.885	408.54
622.229	398.33
622.573	385.56
622.918	395.77
623.262	388.11
623.606	352.37
623.95	372.79
624.294	362.58
624.638	469.82
624.982	449.39
625.326	344.71
625.67	385.56
626.013	380.45
626.357	434.07
626.701	337.05
627.044	306.41
627.388	428.97
627.731	441.73
628.075	441.73
628.418	408.54
628.762	444.29
629.105	408.54
629.448	431.52
629.792	472.37
630.135	367.69
630.478	365.13
630.821	377.9
631.164	360.03
631.507	349.81
631.85	423.86
632.193	362.58
632.536	423.86
632.879	462.16
633.221	426.41
633.564	451.95
633.907	370.24
634.249	405.99
634.592	390.67
634.935	444.29
635.277	411.09
635.619	380.45
635.962	428.97
636.304	385.56
636.646	421.31
636.989	339.6
637.331	395.77
637.673	469.82
638.015	372.79
638.357	421.31
638.699	360.03
639.041	434.07
639.383	393.22
639.725	375.35
640.067	375.35
640.408	405.99
640.75	421.31
641.092	375.35
641.433	439.18
641.775	337.05
642.116	398.33
642.458	426.41
642.799	434.07
643.141	398.33
643.482	434.07
643.823	372.79
644.164	428.97
644.506	482.59
644.847	377.9
645.188	411.09
645.529	354.92
645.87	413.65
646.211	349.81
646.552	398.33
646.893	405.99
647.233	331.94
647.574	370.24
647.915	411.09
648.255	383.01
648.596	398.33
648.937	354.92
649.277	431.52
649.618	344.71
649.958	457.05
650.298	413.65
650.639	428.97
650.979	400.88
651.319	388.11
651.659	408.54
651.999	385.56
652.339	434.07
652.679	298.75
653.019	342.15
653.359	372.79
653.699	367.69
654.039	405.99
654.379	380.45
654.719	365.13
655.058	339.6
655.398	362.58
655.737	408.54
656.077	380.45
656.416	444.29
656.756	395.77
657.095	385.56
657.435	408.54
657.774	354.92
658.113	375.35
658.452	403.43
658.792	372.79
659.131	408.54
659.47	403.43
659.809	393.22
660.148	431.52
660.487	339.6
660.826	459.61
661.164	380.45
661.503	380.45
661.842	405.99
662.181	395.77
662.519	403.43
662.858	405.99
663.196	344.71
663.535	418.75
663.873	388.11
664.212	416.2
664.55	403.43
664.888	403.43
665.226	347.26
665.565	357.47
665.903	638.34
666.241	431.52
666.579	436.63
666.917	428.97
667.255	480.04
667.593	421.31
667.931	395.77
668.268	352.37
668.606	398.33
668.944	418.75
669.282	426.41
669.619	403.43
669.957	385.56
670.294	377.9
670.632	316.62
670.969	434.07
671.307	457.05
671.644	408.54
671.981	383.01
672.318	454.5
672.656	457.05
672.993	454.5
673.33	367.69
673.667	400.88
674.004	436.63
674.341	434.07
674.678	390.67
675.015	413.65
675.351	365.13
675.688	372.79
676.025	390.67
676.362	457.05
676.698	390.67
677.035	393.22
677.371	354.92
677.708	385.56
678.044	413.65
678.38	431.52
678.717	395.77
679.053	337.05
679.389	418.75
679.725	390.67
680.062	405.99
680.398	398.33
680.734	474.93
681.07	413.65
681.406	390.67
681.742	352.37
682.077	398.33
682.413	329.39
682.749	370.24
683.085	385.56
683.42	405.99
683.756	377.9
684.091	426.41
684.427	467.27
684.762	418.75
685.098	485.14
685.433	377.9
685.768	423.86
686.104	408.54
686.439	403.43
686.774	319.17
687.109	434.07
687.444	385.56
687.779	377.9
688.114	365.13
688.449	400.88
688.784	380.45
689.119	480.04
689.454	423.86
689.789	428.97
690.123	405.99
690.458	324.28
690.792	393.22
691.127	411.09
691.461	357.47
691.796	357.47
692.13	377.9
692.465	370.24
692.799	385.56
693.133	362.58
693.467	434.07
693.802	362.58
694.136	385.56
694.47	352.37
694.804	400.88
695.138	411.09
695.472	329.39
695.806	423.86
696.139	390.67
696.473	416.2
696.807	334.49
697.141	360.03
697.474	395.77
697.808	339.6
698.141	352.37
698.475	342.15
698.808	385.56
699.142	393.22
699.475	441.73
699.808	360.03
700.142	324.28
700.475	342.15
700.808	405.99
701.141	390.67
701.474	329.39
701.807	377.9
702.14	354.92
702.473	362.58
702.806	395.77
703.139	385.56
703.472	388.11
703.804	352.37
704.137	349.81
704.47	388.11
704.802	367.69
705.135	403.43
705.467	354.92
705.8	370.24
706.132	474.93
706.464	367.69
706.797	395.77
707.129	403.43
707.461	441.73
707.793	416.2
708.125	454.5
708.457	434.07
708.789	395.77
709.121	354.92
709.453	444.29
709.785	426.41
710.117	385.56
710.449	388.11
710.781	362.58
711.112	431.52
711.444	413.65
711.775	439.18
712.107	434.07
712.438	395.77
712.77	426.41
713.101	431.52
713.433	418.75
713.764	405.99
714.095	403.43
714.426	418.75
714.757	451.95
715.089	347.26
715.42	408.54
715.751	303.85
716.082	357.47
716.412	472.37
716.743	418.75
717.074	388.11
717.405	367.69
717.736	352.37
718.066	421.31
718.397	362.58
718.727	331.94
719.058	383.01
719.388	375.35
719.719	360.03
720.049	395.77
720.38	436.63
720.71	354.92
721.04	367.69
721.37	385.56
721.7	388.11
722.031	393.22
722.361	393.22
722.691	388.11
723.021	423.86
723.35	367.69
723.68	370.24
724.01	375.35
724.34	388.11
724.67	380.45
724.999	352.37
725.329	390.67
725.658	403.43
725.988	459.61
726.317	436.63
726.647	400.88
726.976	416.2
727.306	462.16
727.635	408.54
727.964	413.65
728.293	405.99
728.622	357.47
728.952	375.35
729.281	362.58
729.61	390.67
729.939	408.54
730.267	428.97
730.596	444.29
730.925	308.96
731.254	380.45
731.583	398.33
731.911	459.61
732.24	421.31
732.568	431.52
732.897	426.41
733.225	474.93
733.554	444.29
733.882	405.99
734.21	446.84
734.539	362.58
734.867	370.24
735.195	431.52
735.523	321.73
735.851	439.18
736.179	462.16
736.507	400.88
736.835	370.24
737.163	426.41
737.491	352.37
737.819	375.35
738.147	411.09
738.474	390.67
738.802	372.79
739.13	360.03
739.457	428.97
739.785	411.09
740.112	314.07
740.44	365.13
740.767	457.05
741.094	439.18
741.422	380.45
741.749	388.11
742.076	372.79
742.403	393.22
742.73	398.33
743.057	431.52
743.384	459.61
743.711	446.84
744.038	329.39
744.365	423.86
744.692	354.92
745.018	383.01
745.345	342.15
745.672	344.71
745.998	360.03
746.325	449.39
746.651	421.31
746.978	365.13
747.304	393.22
747.631	426.41
747.957	423.86
748.283	426.41
748.61	423.86
748.936	487.7
749.262	423.86
749.588	446.84
749.914	408.54
750.24	385.56
750.566	362.58
750.892	395.77
751.218	337.05
751.543	393.22
751.869	428.97
752.195	395.77
752.521	357.47
752.846	439.18
753.172	354.92
753.497	342.15
753.823	403.43
754.148	362.58
754.473	403.43
754.799	393.22
755.124	441.73
755.449	431.52
755.774	451.95
756.1	380.45
756.425	380.45
756.75	390.67
757.075	416.2
757.4	523.44
757.724	380.45
758.049	354.92
758.374	405.99
758.699	398.33
759.024	365.13
759.348	405.99
759.673	444.29
759.997	388.11
760.322	367.69
760.646	423.86
760.971	444.29
761.295	400.88
761.619	490.25
761.944	398.33
762.268	405.99
762.592	405.99
762.916	508.12
763.24	500.46
763.564	469.82
763.888	459.61
764.212	526
764.536	510.68
764.86	582.17
765.184	561.74
765.508	628.13
765.831	594.94
766.155	857.94
766.478	725.16
766.802	679.2
767.126	783.89
767.449	824.74
767.772	878.36
768.096	893.68
768.419	931.98
768.742	975.39
769.066	1036.67
769.389	1036.67
769.712	1090.29
770.035	1049.44
770.358	1090.29
770.681	1212.85
771.004	1233.28
771.327	1240.94
771.65	1235.83
771.972	1337.97
772.295	1404.36
772.618	1435
772.941	1452.87
773.263	1440.11
773.586	1486.07
773.908	1692.89
774.231	1733.74
774.553	1764.38
774.875	1894.61
775.198	1994.19
775.52	1874.18
775.842	1853.75
776.164	1807.79
776.487	1876.73
776.809	1851.2
777.131	1861.41
777.453	1769.49
777.775	1869.07
778.096	2124.41
778.418	2106.54
778.74	1897.16
779.062	1907.37
779.384	2144.84
779.705	2435.92
780.027	2647.85
780.348	2619.77
780.67	2655.51
780.991	2803.61
781.313	2969.58
781.634	3148.32
781.955	2984.9
782.277	2783.18
782.598	2964.47
782.919	2839.36
783.24	2821.48
783.561	2872.55
783.882	2826.59
784.203	2801.06
784.524	2885.32
784.845	2678.49
785.166	2617.21
785.487	2604.45
785.807	2632.53
786.128	2499.76
786.449	2494.65
786.769	2627.43
787.09	2762.76
787.41	2864.89
787.731	3212.15
788.051	3286.2
788.372	3403.65
788.692	3658.99
789.012	3694.74
789.332	3689.63
789.653	3911.78
789.973	4169.67
790.293	3909.22
790.613	3503.23
790.933	3439.4
791.253	3125.33
791.573	2979.79
791.893	2772.97
792.212	2706.58
792.532	2629.98
792.852	2578.91
793.171	2415.5
793.491	2341.45
793.811	2456.35
794.13	2525.29
794.45	2540.61
794.769	2469.12
795.088	2658.07
795.408	2704.03
795.727	2959.37
796.046	2829.14
796.365	2635.09
796.684	2586.57
797.004	2374.64
797.323	2578.91
797.642	2808.72
797.96	2875.1
798.279	2785.74
798.598	2632.53
798.917	2617.21
799.236	2349.11
799.554	2239.31
799.873	2175.48
800.192	2160.16
800.51	2223.99
800.829	2155.05
801.147	2142.28
801.466	2068.24
801.784	2035.04
802.102	1971.21
802.421	2155.05
802.739	2236.76
803.057	2178.03
803.375	1866.52
803.693	1996.74
804.011	2109.09
804.329	2160.16
804.647	2096.32
804.965	2022.28
805.283	1963.55
805.601	1856.31
805.918	1795.02
806.236	1692.89
806.554	1629.06
806.871	1749.06
807.189	1884.39
807.507	1955.89
807.824	1909.93
808.141	1646.93
808.459	1524.37
808.776	1391.59
809.093	1263.92
809.411	1108.17
809.728	1126.04
810.045	1105.61
810.362	1100.51
810.679	1189.87
810.996	1192.43
811.313	1228.17
811.63	1325.2
811.947	1302.22
812.264	1233.28
812.58	1189.87
812.897	1141.36
813.214	1281.8
813.53	1217.96
813.847	1251.16
814.163	1238.39
814.48	1194.98
814.796	1187.32
815.113	1182.21
815.429	1059.65
815.745	1054.55
816.061	1057.1
816.378	1029.01
816.694	1051.99
817.01	965.18
817.326	1013.69
817.642	977.94
817.958	1026.46
818.274	863.04
818.59	788.99
818.905	788.99
819.221	852.83
819.537	799.21
819.852	829.85
820.168	891.13
820.484	875.81
820.799	870.7
821.115	875.81
821.43	840.06
821.745	845.17
822.061	811.97
822.376	732.82
822.691	745.59
823.006	768.57
823.322	653.66
823.637	748.14
823.952	561.74
824.267	658.77
824.582	600.04
824.897	571.96
825.211	640.9
825.526	648.56
825.841	620.47
826.156	633.24
826.47	510.68
826.785	663.88
827.1	569.4
827.414	617.92
827.729	561.74
828.043	597.49
828.357	546.42
828.672	546.42
828.986	533.66
829.3	526
829.614	610.26
829.929	589.83
830.243	651.11
830.557	543.87
830.871	574.51
831.185	556.64
831.499	505.57
831.812	490.25
832.126	503.02
832.44	543.87
832.754	508.12
833.067	487.7
833.381	546.42
833.695	487.7
834.008	528.55
834.322	485.14
834.635	459.61
834.948	482.59
835.262	510.68
835.575	444.29
835.888	477.48
836.201	428.97
836.515	441.73
836.828	434.07
837.141	462.16
837.454	444.29
837.767	464.71
838.08	411.09
838.392	395.77
838.705	431.52
839.018	508.12
839.331	446.84
839.643	436.63
839.956	403.43
840.269	467.27
840.581	469.82
840.894	408.54
841.206	408.54
841.519	508.12
841.831	434.07
842.143	423.86
842.455	352.37
842.768	423.86
843.08	367.69
843.392	405.99
843.704	492.8
844.016	462.16
844.328	477.48
844.64	439.18
844.952	367.69
845.263	360.03
845.575	375.35
845.887	393.22
846.199	377.9
846.51	403.43
846.822	349.81
847.133	398.33
847.445	405.99
847.756	413.65
848.068	405.99
848.379	344.71
848.69	362.58
849.002	352.37
849.313	308.96
849.624	418.75
849.935	474.93
850.246	380.45
850.557	405.99
850.868	370.24
851.179	439.18
851.49	421.31
851.801	390.67
852.112	403.43
852.422	385.56
852.733	434.07
853.044	360.03
853.354	360.03
853.665	426.41
853.975	398.33
854.286	431.52
854.596	334.49
854.906	385.56
855.217	296.19
855.527	377.9
855.837	390.67
856.147	372.79
856.458	423.86
856.768	480.04
857.078	388.11
857.388	375.35
857.698	354.92
858.007	380.45
858.317	352.37
858.627	357.47
858.937	383.01
859.246	372.79
859.556	426.41
859.866	446.84
860.175	393.22
860.485	360.03
860.794	421.31
861.104	408.54
861.413	398.33
861.722	334.49
862.032	360.03
862.341	416.2
862.65	372.79
862.959	413.65
863.268	474.93
863.577	370.24
863.886	383.01
864.195	421.31
864.504	405.99
864.813	400.88
865.122	400.88
865.43	334.49
865.739	385.56
866.048	357.47
866.356	293.64
866.665	411.09
866.973	398.33
867.282	413.65
867.59	342.15
867.899	393.22
868.207	360.03
868.515	403.43
868.823	400.88
869.132	436.63
869.44	400.88
869.748	405.99
870.056	421.31
870.364	395.77
870.672	357.47
870.98	416.2
871.288	393.22
871.595	324.28
871.903	367.69
872.211	347.26
872.518	413.65
872.826	380.45
873.134	388.11
873.441	352.37
873.749	418.75
874.056	360.03
874.363	375.35
874.671	444.29
874.978	375.35
875.285	347.26
875.592	405.99
875.9	444.29
876.207	416.2
876.514	383.01
876.821	331.94
877.128	372.79
877.435	395.77
877.741	393.22
878.048	360.03
878.355	375.35
878.662	324.28
878.968	444.29
879.275	421.31
879.582	451.95
879.888	347.26
880.195	347.26
880.501	380.45
880.807	349.81
881.114	390.67
881.42	444.29
881.726	454.5
882.032	334.49
882.339	400.88
882.645	411.09
882.951	375.35
883.257	390.67
883.563	388.11
883.869	400.88
884.174	349.81
884.48	418.75
884.786	375.35
885.092	418.75
885.397	451.95
885.703	344.71
886.009	393.22
886.314	403.43
886.62	403.43
886.925	400.88
887.231	418.75
887.536	421.31
887.841	319.17
888.146	314.07
888.452	324.28
888.757	342.15
889.062	436.63
889.367	365.13
889.672	428.97
889.977	337.05
890.282	390.67
890.587	413.65
890.892	377.9
891.196	326.83
891.501	393.22
891.806	380.45
892.11	390.67
892.415	377.9
892.72	372.79
893.024	324.28
893.328	421.31
893.633	405.99
893.937	403.43
894.242	385.56
894.546	337.05
894.85	395.77
895.154	393.22
895.458	385.56
895.762	316.62
896.066	439.18
896.37	413.65
896.674	375.35
896.978	352.37
897.282	403.43
897.586	388.11
897.89	360.03
898.193	347.26
898.497	390.67
898.801	421.31
899.104	454.5
899.408	405.99
899.711	423.86
900.014	400.88
900.318	349.81
900.621	329.39
900.924	413.65
901.228	405.99
901.531	400.88
901.834	339.6
902.137	314.07
902.44	385.56
902.743	423.86
903.046	360.03
903.349	375.35
903.652	372.79
903.955	347.26
904.257	344.71
904.56	416.2
904.863	403.43
905.165	441.73
905.468	418.75
905.77	454.5
906.073	362.58
906.375	416.2
906.678	416.2
906.98	423.86
907.282	365.13
907.584	354.92
907.887	383.01
908.189	296.19
908.491	354.92
908.793	408.54
909.095	403.43
909.397	344.71
909.699	393.22
910.001	388.11
910.302	418.75
910.604	370.24
910.906	388.11
911.208	349.81
911.509	393.22
911.811	393.22
912.112	405.99
912.414	326.83
912.715	324.28
913.017	385.56
913.318	421.31
913.619	388.11
913.92	388.11
914.222	367.69
914.523	449.39
914.824	436.63
915.125	377.9
915.426	383.01
915.727	403.43
916.028	459.61
916.329	362.58
916.63	383.01
916.93	446.84
917.231	385.56
917.532	367.69
917.832	411.09
918.133	436.63
918.434	362.58
918.734	393.22
919.034	464.71
919.335	349.81
919.635	357.47
919.935	380.45
920.236	344.71
920.536	344.71
920.836	349.81
921.136	449.39
921.436	559.19
921.736	377.9
922.036	383.01
922.336	319.17
922.636	357.47
922.936	377.9
923.236	377.9
923.535	457.05
923.835	441.73
924.135	393.22
924.434	393.22
924.734	449.39
925.033	444.29
925.333	426.41
925.632	380.45
925.932	405.99
926.231	342.15
926.53	395.77
926.83	423.86
927.129	314.07
927.428	367.69
927.727	385.56
928.026	449.39
928.325	441.73
928.624	331.94
928.923	383.01
929.222	418.75
929.52	383.01
929.819	421.31
930.118	446.84
930.417	329.39
930.715	372.79
931.014	431.52
931.312	400.88
931.611	377.9
931.909	421.31
932.207	370.24
932.506	411.09
932.804	360.03
933.102	403.43
933.401	462.16
933.699	370.24
933.997	457.05
934.295	411.09
934.593	426.41
934.891	360.03
935.189	349.81
935.487	474.93
935.784	482.59
936.082	398.33
936.38	385.56
936.677	365.13
936.975	365.13
937.273	436.63
937.57	423.86
937.868	408.54
938.165	383.01
938.463	377.9
938.76	398.33
939.057	370.24
939.354	418.75
939.652	405.99
939.949	408.54
940.246	388.11
940.543	421.31
940.84	398.33
941.137	362.58
941.434	444.29
941.731	316.62
942.028	319.17
942.324	367.69
942.621	360.03
942.918	411.09
943.214	393.22
943.511	365.13
943.807	418.75
944.104	360.03
944.4	405.99
944.697	400.88
944.993	464.71
945.29	367.69
945.586	395.77
945.882	459.61
946.178	365.13
946.474	360.03
946.77	357.47
947.066	342.15
947.362	377.9
947.658	383.01
947.954	324.28
948.25	377.9
948.546	395.77
948.842	413.65
949.137	380.45
949.433	388.11
949.729	413.65
950.024	393.22
950.32	349.81
950.615	375.35
950.91	377.9
951.206	411.09
951.501	436.63
951.796	426.41
952.092	352.37
952.387	352.37
952.682	375.35
952.977	423.86
953.272	418.75
953.567	472.37
953.862	472.37
954.157	403.43
954.452	390.67
954.747	398.33
955.041	400.88
955.336	462.16
955.631	349.81
955.925	395.77
956.22	326.83
956.514	446.84
956.809	349.81
957.103	349.81
957.398	393.22
957.692	398.33
957.986	337.05
958.281	324.28
958.575	303.85
958.869	390.67
959.163	418.75
959.457	326.83
959.751	372.79
960.045	413.65
960.339	344.71
960.633	393.22
960.927	418.75
961.221	441.73
961.514	344.71
961.808	459.61
962.102	400.88
962.395	464.71
962.689	421.31
962.982	403.43
963.276	383.01
963.569	339.6
963.862	390.67
964.156	319.17
964.449	360.03
964.742	400.88
965.035	344.71
965.328	360.03
965.622	344.71
965.915	385.56
966.208	416.2
966.5	362.58
966.793	405.99
967.086	388.11
967.379	434.07
967.672	454.5
967.964	400.88
968.257	439.18
968.55	337.05
968.842	370.24
969.135	400.88
969.427	405.99
969.72	377.9
970.012	428.97
970.304	426.41
970.597	395.77
970.889	418.75
971.181	357.47
971.473	403.43
971.765	408.54
972.057	321.73
972.349	398.33
972.641	352.37
972.933	380.45
973.225	306.41
973.517	324.28
973.809	377.9
974.1	411.09
974.392	441.73
974.684	372.79
974.975	393.22
975.267	388.11
975.558	339.6
975.85	375.35
976.141	380.45
976.432	370.24
976.724	326.83
977.015	405.99
977.306	337.05
977.597	385.56
977.888	339.6
978.179	377.9
978.47	383.01
978.761	352.37
979.052	464.71
979.343	416.2
979.634	357.47
979.925	370.24
980.215	319.17
980.506	431.52
980.797	383.01
981.087	383.01
981.378	334.49
981.668	390.67
981.959	405.99
982.249	288.53
982.54	400.88
982.83	428.97
983.12	405.99
983.41	413.65
983.701	441.73
983.991	365.13
984.281	311.51
984.571	357.47
984.861	380.45
985.151	354.92
985.441	321.73
985.73	349.81
986.02	372.79
986.31	416.2
986.6	372.79
986.889	411.09
987.179	344.71
987.469	344.71
987.758	413.65
988.048	385.56
988.337	370.24
988.626	444.29
988.916	367.69
989.205	354.92
989.494	372.79
989.783	365.13
990.073	411.09
990.362	439.18
990.651	347.26
990.94	370.24
991.229	342.15
991.518	400.88
991.806	372.79
992.095	408.54
992.384	339.6
992.673	400.88
992.961	354.92
993.25	375.35
993.539	377.9
993.827	349.81
994.116	354.92
994.404	388.11
994.692	393.22
994.981	367.69
995.269	354.92
995.557	372.79
995.846	367.69
996.134	354.92
996.422	362.58
996.71	342.15
996.998	324.28
997.286	439.18
997.574	352.37
997.862	329.39
998.15	375.35
998.437	403.43
998.725	337.05
999.013	405.99
999.3	385.56
999.588	331.94
999.876	390.67
1000.163	342.15
1000.45	377.9
1000.738	326.83
1001.025	354.92
1001.313	324.28
1001.6	324.28
1001.887	418.75
1002.174	388.11
1002.461	428.97
1002.748	377.9
1003.036	413.65
1003.322	388.11
1003.609	362.58
1003.896	337.05
1004.183	352.37
1004.47	385.56
1004.757	388.11
1005.043	360.03
1005.33	377.9
1005.617	349.81
1005.903	342.15
1006.19	434.07
1006.476	380.45
1006.763	444.29
1007.049	421.31
1007.335	360.03
1007.622	385.56
1007.908	365.13
1008.194	405.99
1008.48	375.35
1008.766	416.2
1009.053	398.33
1009.339	423.86
1009.625	347.26
1009.91	372.79
1010.196	393.22
1010.482	403.43
1010.768	360.03
1011.054	367.69
1011.339	375.35
1011.625	344.71
1011.911	411.09
1012.196	375.35
1012.482	321.73
1012.767	357.47
1013.052	398.33
1013.338	334.49
1013.623	377.9
1013.908	349.81
1014.194	423.86
1014.479	393.22
1014.764	439.18
1015.049	306.41
1015.334	324.28
1015.619	298.75
1015.904	365.13
1016.189	393.22
1016.474	337.05
1016.758	311.51
1017.043	344.71
1017.328	342.15
1017.613	380.45
1017.897	372.79
1018.182	339.6
1018.466	337.05
1018.751	339.6
1019.035	400.88
1019.32	405.99
1019.604	400.88
1019.888	398.33
1020.172	398.33
1020.457	398.33
