Data from 2025-12-03_xpw_interference_micrometer_634_reference_FLMS141361__189__439.txt Node

Date: Wed Dec 03 15:51:31 MST 2025
User: james
Spectrometer: FLMS14136
Trigger mode: 0
Integration Time (sec): 1.000000E-1
Scans to average: 1
Electric dark correction enabled: true
Nonlinearity correction enabled: false
Boxcar width: 0
XAxis mode: Wavelengths
Number of Pixels in Spectrum: 2048
>>>>>Begin Spectral Data<<<<<
339.315	-59.69
339.697	-59.69
340.079	-59.69
340.461	-80.11
340.843	-115.86
341.225	-31.6
341.607	-149.05
341.989	-82.67
342.371	-62.24
342.752	-100.54
343.134	-31.6
343.516	-54.58
343.897	-21.38
344.279	-11.17
344.661	29.68
345.042	65.43
345.423	27.13
345.805	55.22
346.186	85.86
346.567	142.03
346.949	139.48
347.33	165.01
347.711	170.12
348.092	195.65
348.473	244.17
348.854	251.83
349.235	315.66
349.616	272.25
349.997	233.95
350.378	295.23
350.758	282.47
351.139	285.02
351.52	353.96
351.9	356.52
352.281	341.2
352.661	384.6
353.042	366.73
353.422	399.92
353.803	438.22
354.183	359.07
354.563	384.6
354.943	387.16
355.324	351.41
355.704	407.58
356.084	397.37
356.464	430.56
356.844	433.12
357.224	384.6
357.603	320.77
357.983	417.8
358.363	407.58
358.743	405.03
359.122	384.6
359.502	435.67
359.882	397.37
360.261	376.94
360.641	359.07
361.02	415.24
361.399	394.82
361.779	387.16
362.158	407.58
362.537	392.26
362.916	410.14
363.296	333.54
363.675	356.52
364.054	407.58
364.433	353.96
364.812	336.09
365.19	297.79
365.569	336.09
365.948	356.52
366.327	328.43
366.705	295.23
367.084	351.41
367.463	356.52
367.841	366.73
368.22	376.94
368.598	407.58
368.977	267.15
369.355	356.52
369.733	387.16
370.111	382.05
370.49	336.09
370.868	300.34
371.246	382.05
371.624	346.3
372.002	399.92
372.38	341.2
372.758	323.32
373.136	343.75
373.513	412.69
373.891	315.66
374.269	384.6
374.646	333.54
375.024	353.96
375.402	369.28
375.779	320.77
376.157	343.75
376.534	328.43
376.911	384.6
377.289	371.84
377.666	384.6
378.043	374.39
378.42	356.52
378.797	384.6
379.175	338.64
379.552	374.39
379.929	384.6
380.305	336.09
380.682	262.04
381.059	336.09
381.436	410.14
381.813	364.18
382.189	336.09
382.566	333.54
382.943	402.48
383.319	346.3
383.696	328.43
384.072	330.98
384.448	353.96
384.825	415.24
385.201	361.62
385.577	341.2
385.953	379.5
386.329	405.03
386.706	338.64
387.082	384.6
387.458	338.64
387.834	305.45
388.209	364.18
388.585	290.13
388.961	323.32
389.337	417.8
389.713	392.26
390.088	394.82
390.464	374.39
390.839	359.07
391.215	433.12
391.59	343.75
391.966	379.5
392.341	333.54
392.716	397.37
393.092	348.86
393.467	343.75
393.842	371.84
394.217	389.71
394.592	330.98
394.967	315.66
395.342	369.28
395.717	359.07
396.092	371.84
396.467	353.96
396.841	366.73
397.216	356.52
397.591	346.3
397.965	394.82
398.34	435.67
398.714	315.66
399.089	376.94
399.463	453.54
399.838	445.88
400.212	364.18
400.586	412.69
400.961	387.16
401.335	384.6
401.709	425.46
402.083	287.57
402.457	364.18
402.831	382.05
403.205	450.99
403.579	343.75
403.953	325.87
404.326	338.64
404.7	399.92
405.074	361.62
405.447	389.71
405.821	376.94
406.195	397.37
406.568	458.65
406.942	476.52
407.315	417.8
407.688	351.41
408.062	366.73
408.435	376.94
408.808	353.96
409.181	376.94
409.554	374.39
409.927	371.84
410.3	382.05
410.673	435.67
411.046	422.9
411.419	333.54
411.792	435.67
412.165	328.43
412.537	394.82
412.91	359.07
413.283	359.07
413.655	364.18
414.028	371.84
414.4	369.28
414.773	351.41
415.145	376.94
415.517	353.96
415.889	369.28
416.262	346.3
416.634	415.24
417.006	392.26
417.378	374.39
417.75	376.94
418.122	371.84
418.494	379.5
418.866	313.11
419.238	374.39
419.609	351.41
419.981	394.82
420.353	366.73
420.725	394.82
421.096	379.5
421.468	384.6
421.839	384.6
422.211	336.09
422.582	364.18
422.953	382.05
423.325	420.35
423.696	399.92
424.067	366.73
424.438	364.18
424.809	394.82
425.18	356.52
425.551	366.73
425.922	336.09
426.293	394.82
426.664	318.21
427.035	438.22
427.406	371.84
427.776	366.73
428.147	374.39
428.518	417.8
428.888	392.26
429.259	369.28
429.629	336.09
429.999	374.39
430.37	422.9
430.74	415.24
431.11	290.13
431.481	341.2
431.851	369.28
432.221	461.2
432.591	440.78
432.961	389.71
433.331	374.39
433.701	397.37
434.071	356.52
434.441	376.94
434.81	402.48
435.18	353.96
435.55	371.84
435.919	361.62
436.289	417.8
436.658	410.14
437.028	430.56
437.397	420.35
437.767	405.03
438.136	382.05
438.505	479.08
438.875	438.22
439.244	371.84
439.613	374.39
439.982	399.92
440.351	438.22
440.72	458.65
441.089	466.31
441.458	420.35
441.827	320.77
442.196	382.05
442.564	376.94
442.933	328.43
443.302	376.94
443.67	359.07
444.039	353.96
444.407	438.22
444.776	417.8
445.144	428.01
445.513	412.69
445.881	430.56
446.249	387.16
446.617	412.69
446.986	468.86
447.354	394.82
447.722	366.73
448.09	402.48
448.458	359.07
448.826	417.8
449.194	328.43
449.561	351.41
449.929	338.64
450.297	371.84
450.665	402.48
451.032	448.44
451.4	369.28
451.767	361.62
452.135	369.28
452.502	384.6
452.87	382.05
453.237	346.3
453.604	328.43
453.971	453.54
454.339	435.67
454.706	333.54
455.073	392.26
455.44	387.16
455.807	369.28
456.174	461.2
456.541	420.35
456.908	415.24
457.274	397.37
457.641	417.8
458.008	371.84
458.374	448.44
458.741	405.03
459.108	463.76
459.474	366.73
459.841	384.6
460.207	361.62
460.573	410.14
460.94	476.52
461.306	453.54
461.672	318.21
462.038	323.32
462.404	376.94
462.771	359.07
463.137	425.46
463.503	417.8
463.868	450.99
464.234	346.3
464.6	402.48
464.966	410.14
465.332	402.48
465.697	443.33
466.063	412.69
466.429	405.03
466.794	428.01
467.16	415.24
467.525	384.6
467.89	374.39
468.256	456.1
468.621	412.69
468.986	405.03
469.351	313.11
469.717	353.96
470.082	405.03
470.447	471.42
470.812	394.82
471.177	415.24
471.542	435.67
471.906	405.03
472.271	366.73
472.636	369.28
473.001	374.39
473.365	369.28
473.73	425.46
474.094	417.8
474.459	443.33
474.823	471.42
475.188	392.26
475.552	302.89
475.917	458.65
476.281	405.03
476.645	443.33
477.009	405.03
477.373	394.82
477.737	463.76
478.101	425.46
478.465	440.78
478.829	476.52
479.193	405.03
479.557	430.56
479.921	384.6
480.284	407.58
480.648	379.5
481.012	323.32
481.375	361.62
481.739	318.21
482.102	336.09
482.466	376.94
482.829	430.56
483.193	399.92
483.556	453.54
483.919	382.05
484.282	361.62
484.645	473.97
485.009	397.37
485.372	343.75
485.735	394.82
486.098	405.03
486.46	369.28
486.823	412.69
487.186	445.88
487.549	364.18
487.912	374.39
488.274	397.37
488.637	405.03
488.999	353.96
489.362	410.14
489.724	353.96
490.087	366.73
490.449	420.35
490.811	405.03
491.174	392.26
491.536	359.07
491.898	407.58
492.26	428.01
492.622	425.46
492.984	338.64
493.346	361.62
493.708	422.9
494.07	376.94
494.432	348.86
494.794	371.84
495.155	384.6
495.517	328.43
495.879	422.9
496.24	366.73
496.602	384.6
496.963	415.24
497.325	443.33
497.686	364.18
498.048	387.16
498.409	394.82
498.77	364.18
499.131	389.71
499.492	405.03
499.854	448.44
500.215	450.99
500.576	399.92
500.937	443.33
501.298	369.28
501.658	371.84
502.019	443.33
502.38	387.16
502.741	415.24
503.101	407.58
503.462	394.82
503.823	405.03
504.183	417.8
504.543	410.14
504.904	433.12
505.264	410.14
505.625	374.39
505.985	397.37
506.345	473.97
506.705	384.6
507.065	453.54
507.426	405.03
507.786	315.66
508.146	425.46
508.505	450.99
508.865	430.56
509.225	374.39
509.585	468.86
509.945	384.6
510.304	330.98
510.664	422.9
511.024	420.35
511.383	356.52
511.743	466.31
512.102	384.6
512.462	328.43
512.821	382.05
513.18	371.84
513.539	410.14
513.899	399.92
514.258	407.58
514.617	374.39
514.976	379.5
515.335	392.26
515.694	387.16
516.053	371.84
516.412	359.07
516.771	412.69
517.129	384.6
517.488	392.26
517.847	410.14
518.205	371.84
518.564	399.92
518.922	410.14
519.281	430.56
519.639	330.98
519.998	430.56
520.356	422.9
520.714	402.48
521.073	433.12
521.431	394.82
521.789	387.16
522.147	369.28
522.505	430.56
522.863	425.46
523.221	420.35
523.579	366.73
523.937	417.8
524.295	417.8
524.652	410.14
525.01	422.9
525.368	438.22
525.725	407.58
526.083	463.76
526.44	325.87
526.798	394.82
527.155	366.73
527.513	407.58
527.87	374.39
528.227	336.09
528.584	425.46
528.942	366.73
529.299	382.05
529.656	369.28
530.013	417.8
530.37	389.71
530.727	366.73
531.083	435.67
531.44	402.48
531.797	387.16
532.154	361.62
532.511	412.69
532.867	420.35
533.224	384.6
533.58	351.41
533.937	323.32
534.293	343.75
534.65	407.58
535.006	410.14
535.362	425.46
535.718	394.82
536.075	415.24
536.431	407.58
536.787	407.58
537.143	481.63
537.499	420.35
537.855	405.03
538.211	397.37
538.567	402.48
538.923	366.73
539.278	428.01
539.634	456.1
539.99	392.26
540.345	374.39
540.701	392.26
541.056	422.9
541.412	333.54
541.767	410.14
542.123	364.18
542.478	410.14
542.833	348.86
543.188	466.31
543.544	387.16
543.899	420.35
544.254	417.8
544.609	397.37
544.964	410.14
545.319	453.54
545.674	407.58
546.029	412.69
546.383	356.52
546.738	458.65
547.093	364.18
547.447	412.69
547.802	369.28
548.157	325.87
548.511	361.62
548.866	323.32
549.22	333.54
549.574	366.73
549.929	382.05
550.283	348.86
550.637	394.82
550.991	415.24
551.345	422.9
551.699	384.6
552.053	366.73
552.407	333.54
552.761	353.96
553.115	389.71
553.469	405.03
553.823	417.8
554.176	399.92
554.53	384.6
554.884	382.05
555.237	624.62
555.591	351.41
555.944	407.58
556.298	394.82
556.651	369.28
557.005	387.16
557.358	399.92
557.711	402.48
558.064	420.35
558.417	325.87
558.771	463.76
559.124	448.44
559.477	374.39
559.83	417.8
560.182	402.48
560.535	415.24
560.888	422.9
561.241	415.24
561.594	448.44
561.946	374.39
562.299	435.67
562.651	430.56
563.004	445.88
563.356	473.97
563.709	389.71
564.061	410.14
564.413	366.73
564.766	343.75
565.118	338.64
565.47	366.73
565.822	422.9
566.174	412.69
566.526	425.46
566.878	514.82
567.23	346.3
567.582	308
567.934	399.92
568.286	374.39
568.638	369.28
568.989	412.69
569.341	366.73
569.693	453.54
570.044	425.46
570.396	412.69
570.747	394.82
571.098	402.48
571.45	384.6
571.801	348.86
572.152	450.99
572.504	450.99
572.855	384.6
573.206	415.24
573.557	402.48
573.908	407.58
574.259	428.01
574.61	415.24
574.961	399.92
575.311	461.2
575.662	448.44
576.013	458.65
576.364	425.46
576.714	366.73
577.065	428.01
577.415	407.58
577.766	463.76
578.116	410.14
578.467	402.48
578.817	443.33
579.167	463.76
579.518	420.35
579.868	438.22
580.218	481.63
580.568	430.56
580.918	410.14
581.268	356.52
581.618	387.16
581.968	458.65
582.318	392.26
582.668	433.12
583.017	433.12
583.367	417.8
583.717	433.12
584.066	328.43
584.416	394.82
584.765	374.39
585.115	407.58
585.464	420.35
585.814	371.84
586.163	359.07
586.512	343.75
586.862	397.37
587.211	387.16
587.56	389.71
587.909	417.8
588.258	405.03
588.607	412.69
588.956	422.9
589.305	330.98
589.654	443.33
590.002	461.2
590.351	430.56
590.7	389.71
591.048	430.56
591.397	384.6
591.746	346.3
592.094	366.73
592.443	351.41
592.791	392.26
593.139	450.99
593.488	453.54
593.836	422.9
594.184	410.14
594.532	399.92
594.88	412.69
595.228	461.2
595.576	374.39
595.924	397.37
596.272	325.87
596.62	369.28
596.968	371.84
597.316	415.24
597.664	417.8
598.011	387.16
598.359	397.37
598.706	353.96
599.054	389.71
599.402	361.62
599.749	371.84
600.096	382.05
600.444	410.14
600.791	443.33
601.138	415.24
601.485	405.03
601.833	415.24
602.18	407.58
602.527	364.18
602.874	435.67
603.221	399.92
603.568	379.5
603.914	443.33
604.261	389.71
604.608	399.92
604.955	448.44
605.301	382.05
605.648	410.14
605.995	417.8
606.341	305.45
606.688	351.41
607.034	328.43
607.38	412.69
607.727	438.22
608.073	356.52
608.419	425.46
608.765	361.62
609.112	399.92
609.458	412.69
609.804	407.58
610.15	435.67
610.496	364.18
610.842	433.12
611.187	410.14
611.533	433.12
611.879	384.6
612.225	364.18
612.57	399.92
612.916	397.37
613.261	445.88
613.607	384.6
613.952	399.92
614.298	397.37
614.643	392.26
614.989	277.36
615.334	389.71
615.679	382.05
616.024	320.77
616.369	450.99
616.714	371.84
617.059	382.05
617.404	369.28
617.749	399.92
618.094	412.69
618.439	399.92
618.784	410.14
619.129	433.12
619.473	433.12
619.818	338.64
620.163	387.16
620.507	407.58
620.852	456.1
621.196	359.07
621.54	382.05
621.885	356.52
622.229	351.41
622.573	405.03
622.918	351.41
623.262	425.46
623.606	438.22
623.95	405.03
624.294	435.67
624.638	384.6
624.982	364.18
625.326	407.58
625.67	425.46
626.013	405.03
626.357	405.03
626.701	384.6
627.044	376.94
627.388	384.6
627.731	420.35
628.075	440.78
628.418	399.92
628.762	392.26
629.105	399.92
629.448	407.58
629.792	448.44
630.135	392.26
630.478	450.99
630.821	392.26
631.164	356.52
631.507	382.05
631.85	384.6
632.193	417.8
632.536	456.1
632.879	428.01
633.221	384.6
633.564	425.46
633.907	397.37
634.249	394.82
634.592	397.37
634.935	384.6
635.277	389.71
635.619	412.69
635.962	328.43
636.304	397.37
636.646	425.46
636.989	371.84
637.331	410.14
637.673	376.94
638.015	412.69
638.357	379.5
638.699	379.5
639.041	397.37
639.383	392.26
639.725	415.24
640.067	422.9
640.408	417.8
640.75	407.58
641.092	384.6
641.433	384.6
641.775	405.03
642.116	376.94
642.458	448.44
642.799	379.5
643.141	389.71
643.482	440.78
643.823	473.97
644.164	402.48
644.506	458.65
644.847	382.05
645.188	356.52
645.529	374.39
645.87	456.1
646.211	402.48
646.552	461.2
646.893	479.08
647.233	430.56
647.574	399.92
647.915	389.71
648.255	346.3
648.596	382.05
648.937	407.58
649.277	448.44
649.618	438.22
649.958	376.94
650.298	399.92
650.639	341.2
650.979	371.84
651.319	397.37
651.659	438.22
651.999	371.84
652.339	425.46
652.679	420.35
653.019	376.94
653.359	463.76
653.699	410.14
654.039	420.35
654.379	417.8
654.719	376.94
655.058	445.88
655.398	433.12
655.737	371.84
656.077	346.3
656.416	402.48
656.756	343.75
657.095	328.43
657.435	343.75
657.774	422.9
658.113	440.78
658.452	440.78
658.792	402.48
659.131	379.5
659.47	364.18
659.809	346.3
660.148	361.62
660.487	389.71
660.826	361.62
661.164	394.82
661.503	371.84
661.842	379.5
662.181	351.41
662.519	369.28
662.858	328.43
663.196	348.86
663.535	274.81
663.873	374.39
664.212	422.9
664.55	392.26
664.888	412.69
665.226	361.62
665.565	384.6
665.903	614.41
666.241	425.46
666.579	435.67
666.917	410.14
667.255	410.14
667.593	346.3
667.931	369.28
668.268	389.71
668.606	402.48
668.944	407.58
669.282	428.01
669.619	402.48
669.957	407.58
670.294	425.46
670.632	407.58
670.969	382.05
671.307	399.92
671.644	397.37
671.981	420.35
672.318	330.98
672.656	405.03
672.993	422.9
673.33	397.37
673.667	392.26
674.004	415.24
674.341	374.39
674.678	348.86
675.015	336.09
675.351	333.54
675.688	394.82
676.025	440.78
676.362	422.9
676.698	402.48
677.035	456.1
677.371	425.46
677.708	366.73
678.044	369.28
678.38	410.14
678.717	389.71
679.053	456.1
679.389	376.94
679.725	397.37
680.062	448.44
680.398	356.52
680.734	359.07
681.07	402.48
681.406	361.62
681.742	407.58
682.077	366.73
682.413	397.37
682.749	394.82
683.085	359.07
683.42	402.48
683.756	341.2
684.091	392.26
684.427	338.64
684.762	351.41
685.098	450.99
685.433	420.35
685.768	348.86
686.104	371.84
686.439	420.35
686.774	402.48
687.109	422.9
687.444	417.8
687.779	435.67
688.114	341.2
688.449	399.92
688.784	348.86
689.119	351.41
689.454	399.92
689.789	359.07
690.123	346.3
690.458	341.2
690.792	379.5
691.127	412.69
691.461	366.73
691.796	387.16
692.13	405.03
692.465	366.73
692.799	323.32
693.133	376.94
693.467	428.01
693.802	466.31
694.136	376.94
694.47	333.54
694.804	402.48
695.138	402.48
695.472	353.96
695.806	402.48
696.139	369.28
696.473	415.24
696.807	456.1
697.141	384.6
697.474	399.92
697.808	448.44
698.141	405.03
698.475	399.92
698.808	410.14
699.142	422.9
699.475	330.98
699.808	384.6
700.142	428.01
700.475	458.65
700.808	384.6
701.141	384.6
701.474	364.18
701.807	315.66
702.14	371.84
702.473	369.28
702.806	394.82
703.139	425.46
703.472	458.65
703.804	394.82
704.137	402.48
704.47	440.78
704.802	359.07
705.135	397.37
705.467	343.75
705.8	364.18
706.132	382.05
706.464	443.33
706.797	397.37
707.129	379.5
707.461	379.5
707.793	359.07
708.125	343.75
708.457	366.73
708.789	438.22
709.121	458.65
709.453	443.33
709.785	389.71
710.117	346.3
710.449	422.9
710.781	371.84
711.112	353.96
711.444	361.62
711.775	351.41
712.107	359.07
712.438	348.86
712.77	389.71
713.101	348.86
713.433	410.14
713.764	320.77
714.095	376.94
714.426	376.94
714.757	458.65
715.089	382.05
715.42	338.64
715.751	422.9
716.082	433.12
716.412	366.73
716.743	389.71
717.074	433.12
717.405	415.24
717.736	353.96
718.066	438.22
718.397	356.52
718.727	394.82
719.058	435.67
719.388	399.92
719.719	315.66
720.049	428.01
720.38	384.6
720.71	394.82
721.04	356.52
721.37	330.98
721.7	330.98
722.031	410.14
722.361	399.92
722.691	412.69
723.021	399.92
723.35	476.52
723.68	422.9
724.01	387.16
724.34	353.96
724.67	387.16
724.999	461.2
725.329	440.78
725.658	417.8
725.988	394.82
726.317	407.58
726.647	392.26
726.976	356.52
727.306	417.8
727.635	410.14
727.964	366.73
728.293	405.03
728.622	382.05
728.952	433.12
729.281	443.33
729.61	336.09
729.939	405.03
730.267	374.39
730.596	359.07
730.925	353.96
731.254	361.62
731.583	445.88
731.911	389.71
732.24	392.26
732.568	359.07
732.897	384.6
733.225	369.28
733.554	361.62
733.882	399.92
734.21	356.52
734.539	405.03
734.867	366.73
735.195	405.03
735.523	387.16
735.851	387.16
736.179	430.56
736.507	412.69
736.835	318.21
737.163	361.62
737.491	351.41
737.819	433.12
738.147	374.39
738.474	382.05
738.802	369.28
739.13	420.35
739.457	425.46
739.785	430.56
740.112	379.5
740.44	448.44
740.767	387.16
741.094	369.28
741.422	361.62
741.749	392.26
742.076	422.9
742.403	376.94
742.73	356.52
743.057	394.82
743.384	369.28
743.711	348.86
744.038	341.2
744.365	407.58
744.692	384.6
745.018	438.22
745.345	402.48
745.672	353.96
745.998	346.3
746.325	389.71
746.651	382.05
746.978	374.39
747.304	394.82
747.631	336.09
747.957	392.26
748.283	394.82
748.61	399.92
748.936	399.92
749.262	417.8
749.588	410.14
749.914	369.28
750.24	382.05
750.566	382.05
750.892	402.48
751.218	341.2
751.543	341.2
751.869	359.07
752.195	410.14
752.521	420.35
752.846	384.6
753.172	415.24
753.497	346.3
753.823	392.26
754.148	325.87
754.473	420.35
754.799	369.28
755.124	371.84
755.449	364.18
755.774	392.26
756.1	407.58
756.425	458.65
756.75	384.6
757.075	353.96
757.4	502.06
757.724	417.8
758.049	407.58
758.374	527.59
758.699	415.24
759.024	366.73
759.348	387.16
759.673	325.87
759.997	399.92
760.322	471.42
760.646	433.12
760.971	320.77
761.295	458.65
761.619	494.4
761.944	458.65
762.268	491.84
762.592	440.78
762.916	458.65
763.24	471.42
763.564	468.86
763.888	504.61
764.212	540.36
764.536	453.54
764.86	571
765.184	611.85
765.508	563.34
765.831	683.35
766.155	925.92
766.478	724.2
766.802	765.06
767.126	759.95
767.449	831.44
767.772	910.6
768.096	979.54
768.419	964.22
768.742	946.35
769.066	1033.16
769.389	1035.71
769.712	1071.46
770.035	1038.27
770.358	1109.76
770.681	1229.77
771.004	1125.08
771.327	1158.28
771.65	1298.71
771.972	1329.35
772.295	1467.23
772.618	1459.57
772.941	1395.74
773.263	1480
773.586	1546.39
773.908	1671.51
774.231	1740.45
774.553	1697.04
774.875	1965.14
775.198	2044.3
775.52	1916.63
775.842	1891.1
776.164	1852.79
776.487	1906.42
776.809	1878.33
777.131	1962.59
777.453	1852.79
777.775	1993.23
778.096	2023.87
778.418	2108.13
778.74	2021.32
779.062	2120.9
779.384	2291.98
779.705	2486.03
780.027	2636.68
780.348	2766.9
780.67	2544.76
780.991	2815.42
781.313	2973.73
781.634	3195.87
781.955	2915
782.277	2971.17
782.598	2953.3
782.919	2960.96
783.24	3032.46
783.561	2958.41
783.882	2884.36
784.203	2889.47
784.524	2966.07
784.845	2935.43
785.166	2692.86
785.487	2692.86
785.807	2720.94
786.128	2575.4
786.449	2549.87
786.769	2595.83
787.09	2912.45
787.41	3045.22
787.731	3246.94
788.051	3484.4
788.372	3354.18
788.692	3772.94
789.012	3813.79
789.332	3854.64
789.653	4028.27
789.973	4219.78
790.293	4051.25
790.613	3566.11
790.933	3269.92
791.253	3080.97
791.573	3078.42
791.893	2835.85
792.212	2797.54
792.532	2782.22
792.852	2611.15
793.171	2493.69
793.491	2427.3
793.811	2511.57
794.13	2641.79
794.45	2534.55
794.769	2465.61
795.088	2652
795.408	2848.61
795.727	3024.8
796.046	2848.61
796.365	2764.35
796.684	2611.15
797.004	2460.5
797.323	2588.17
797.642	2899.68
797.96	2968.62
798.279	2897.13
798.598	2756.69
798.917	2595.83
799.236	2501.35
799.554	2263.89
799.873	2100.47
800.192	2251.12
800.51	2312.4
800.829	2194.95
801.147	2279.21
801.466	1983.02
801.784	2023.87
802.102	1998.34
802.421	2159.2
802.739	2307.3
803.057	2092.81
803.375	1827.26
803.693	2023.87
804.011	2080.05
804.329	2353.26
804.647	2215.37
804.965	2031.53
805.283	2067.28
805.601	1896.2
805.918	1880.88
806.236	1868.12
806.554	1735.34
806.871	1748.11
807.189	1972.8
807.507	1873.22
807.824	1806.83
808.141	1735.34
808.459	1459.57
808.776	1382.97
809.093	1237.43
809.411	1194.02
809.728	1168.49
810.045	1132.74
810.362	1043.37
810.679	1158.28
810.996	1194.02
811.313	1288.5
811.63	1321.69
811.947	1204.24
812.264	1191.47
812.58	1194.02
812.897	1148.06
813.214	1186.36
813.53	1163.38
813.847	1211.9
814.163	1209.34
814.48	1227.22
814.796	1260.41
815.113	1127.64
815.429	1104.66
815.745	1043.37
816.061	1158.28
816.378	976.99
816.694	997.41
817.01	933.58
817.326	1107.21
817.642	1038.27
817.958	936.13
818.274	844.21
818.59	834
818.905	772.72
819.221	798.25
819.537	767.61
819.852	808.46
820.168	890.17
820.484	844.21
820.799	811.02
821.115	816.12
821.43	800.8
821.745	821.23
822.061	793.14
822.376	701.22
822.691	836.55
823.006	782.93
823.322	767.61
823.637	716.54
823.952	691.01
824.267	678.24
824.582	680.79
824.897	647.6
825.211	657.81
825.526	660.37
825.841	660.37
826.156	604.19
826.47	593.98
826.785	563.34
827.1	619.51
827.414	573.55
827.729	540.36
828.043	555.68
828.357	545.47
828.672	568.45
828.986	591.43
829.3	637.39
829.614	593.98
829.929	558.23
830.243	553.13
830.557	606.75
830.871	537.81
831.185	550.57
831.499	593.98
831.812	545.47
832.126	527.59
832.44	639.94
832.754	565.89
833.067	519.93
833.381	410.14
833.695	461.2
834.008	553.13
834.322	537.81
834.635	555.68
834.948	453.54
835.262	458.65
835.575	387.16
835.888	430.56
836.201	384.6
836.515	420.35
836.828	397.37
837.141	479.08
837.454	489.29
837.767	496.95
838.08	422.9
838.392	468.86
838.705	443.33
839.018	407.58
839.331	399.92
839.643	456.1
839.956	356.52
840.269	471.42
840.581	438.22
840.894	422.9
841.206	430.56
841.519	591.43
841.831	407.58
842.143	376.94
842.455	369.28
842.768	397.37
843.08	376.94
843.392	443.33
843.704	402.48
844.016	417.8
844.328	412.69
844.64	438.22
844.952	389.71
845.263	364.18
845.575	392.26
845.887	420.35
846.199	402.48
846.51	402.48
846.822	384.6
847.133	384.6
847.445	397.37
847.756	348.86
848.068	405.03
848.379	425.46
848.69	420.35
849.002	433.12
849.313	371.84
849.624	384.6
849.935	405.03
850.246	397.37
850.557	379.5
850.868	476.52
851.179	353.96
851.49	379.5
851.801	433.12
852.112	412.69
852.422	379.5
852.733	435.67
853.044	422.9
853.354	394.82
853.665	481.63
853.975	453.54
854.286	420.35
854.596	471.42
854.906	364.18
855.217	387.16
855.527	425.46
855.837	371.84
856.147	361.62
856.458	379.5
856.768	371.84
857.078	359.07
857.388	308
857.698	333.54
858.007	448.44
858.317	415.24
858.627	402.48
858.937	371.84
859.246	374.39
859.556	412.69
859.866	405.03
860.175	430.56
860.485	440.78
860.794	496.95
861.104	379.5
861.413	405.03
861.722	402.48
862.032	412.69
862.341	389.71
862.65	443.33
862.959	379.5
863.268	440.78
863.577	415.24
863.886	407.58
864.195	353.96
864.504	382.05
864.813	361.62
865.122	399.92
865.43	402.48
865.739	389.71
866.048	364.18
866.356	343.75
866.665	392.26
866.973	379.5
867.282	417.8
867.59	405.03
867.899	364.18
868.207	399.92
868.515	402.48
868.823	417.8
869.132	399.92
869.44	343.75
869.748	397.37
870.056	394.82
870.364	361.62
870.672	422.9
870.98	338.64
871.288	320.77
871.595	338.64
871.903	420.35
872.211	384.6
872.518	325.87
872.826	461.2
873.134	433.12
873.441	366.73
873.749	379.5
874.056	366.73
874.363	402.48
874.671	359.07
874.978	351.41
875.285	341.2
875.592	428.01
875.9	353.96
876.207	443.33
876.514	323.32
876.821	399.92
877.128	433.12
877.435	399.92
877.741	399.92
878.048	425.46
878.355	438.22
878.662	374.39
878.968	320.77
879.275	300.34
879.582	364.18
879.888	330.98
880.195	343.75
880.501	343.75
880.807	359.07
881.114	348.86
881.42	425.46
881.726	318.21
882.032	394.82
882.339	351.41
882.645	392.26
882.951	384.6
883.257	346.3
883.563	430.56
883.869	394.82
884.174	420.35
884.48	415.24
884.786	392.26
885.092	402.48
885.397	471.42
885.703	422.9
886.009	430.56
886.314	425.46
886.62	384.6
886.925	371.84
887.231	394.82
887.536	428.01
887.841	440.78
888.146	415.24
888.452	394.82
888.757	379.5
889.062	392.26
889.367	417.8
889.672	425.46
889.977	348.86
890.282	346.3
890.587	405.03
890.892	402.48
891.196	410.14
891.501	371.84
891.806	366.73
892.11	359.07
892.415	425.46
892.72	376.94
893.024	399.92
893.328	402.48
893.633	397.37
893.937	364.18
894.242	376.94
894.546	336.09
894.85	374.39
895.154	336.09
895.458	364.18
895.762	351.41
896.066	417.8
896.37	338.64
896.674	366.73
896.978	374.39
897.282	415.24
897.586	376.94
897.89	371.84
898.193	392.26
898.497	389.71
898.801	435.67
899.104	392.26
899.408	384.6
899.711	394.82
900.014	371.84
900.318	353.96
900.621	399.92
900.924	399.92
901.228	415.24
901.531	353.96
901.834	394.82
902.137	407.58
902.44	422.9
902.743	374.39
903.046	420.35
903.349	410.14
903.652	376.94
903.955	338.64
904.257	343.75
904.56	412.69
904.863	351.41
905.165	371.84
905.468	422.9
905.77	343.75
906.073	410.14
906.375	394.82
906.678	343.75
906.98	384.6
907.282	348.86
907.584	356.52
907.887	425.46
908.189	348.86
908.491	318.21
908.793	366.73
909.095	433.12
909.397	353.96
909.699	392.26
910.001	387.16
910.302	397.37
910.604	353.96
910.906	328.43
911.208	379.5
911.509	397.37
911.811	361.62
912.112	384.6
912.414	351.41
912.715	356.52
913.017	382.05
913.318	364.18
913.619	318.21
913.92	389.71
914.222	356.52
914.523	384.6
914.824	374.39
915.125	310.55
915.426	325.87
915.727	417.8
916.028	430.56
916.329	420.35
916.63	399.92
916.93	397.37
917.231	382.05
917.532	361.62
917.832	422.9
918.133	428.01
918.434	438.22
918.734	399.92
919.034	399.92
919.335	430.56
919.635	402.48
919.935	443.33
920.236	433.12
920.536	407.58
920.836	458.65
921.136	359.07
921.436	481.63
921.736	379.5
922.036	397.37
922.336	366.73
922.636	366.73
922.936	392.26
923.236	341.2
923.535	361.62
923.835	356.52
924.135	295.23
924.434	389.71
924.734	430.56
925.033	338.64
925.333	336.09
925.632	473.97
925.932	371.84
926.231	387.16
926.53	417.8
926.83	366.73
927.129	338.64
927.428	410.14
927.727	397.37
928.026	341.2
928.325	371.84
928.624	351.41
928.923	371.84
929.222	443.33
929.52	399.92
929.819	369.28
930.118	389.71
930.417	379.5
930.715	389.71
931.014	458.65
931.312	473.97
931.611	402.48
931.909	412.69
932.207	417.8
932.506	356.52
932.804	333.54
933.102	369.28
933.401	399.92
933.699	392.26
933.997	361.62
934.295	394.82
934.593	387.16
934.891	387.16
935.189	410.14
935.487	384.6
935.784	415.24
936.082	468.86
936.38	438.22
936.677	458.65
936.975	374.39
937.273	323.32
937.57	392.26
937.868	356.52
938.165	366.73
938.463	440.78
938.76	389.71
939.057	440.78
939.354	392.26
939.652	351.41
939.949	341.2
940.246	371.84
940.543	336.09
940.84	318.21
941.137	359.07
941.434	420.35
941.731	389.71
942.028	376.94
942.324	387.16
942.621	412.69
942.918	387.16
943.214	417.8
943.511	407.58
943.807	387.16
944.104	359.07
944.4	366.73
944.697	448.44
944.993	387.16
945.29	402.48
945.586	361.62
945.882	356.52
946.178	336.09
946.474	346.3
946.77	353.96
947.066	420.35
947.362	428.01
947.658	376.94
947.954	320.77
948.25	292.68
948.546	330.98
948.842	341.2
949.137	346.3
949.433	384.6
949.729	456.1
950.024	430.56
950.32	425.46
950.615	443.33
950.91	374.39
951.206	405.03
951.501	412.69
951.796	379.5
952.092	420.35
952.387	384.6
952.682	430.56
952.977	420.35
953.272	428.01
953.567	433.12
953.862	364.18
954.157	397.37
954.452	325.87
954.747	336.09
955.041	359.07
955.336	302.89
955.631	397.37
955.925	402.48
956.22	371.84
956.514	341.2
956.809	394.82
957.103	351.41
957.398	318.21
957.692	394.82
957.986	343.75
958.281	379.5
958.575	379.5
958.869	402.48
959.163	405.03
959.457	394.82
959.751	407.58
960.045	397.37
960.339	440.78
960.633	384.6
960.927	399.92
961.221	366.73
961.514	422.9
961.808	448.44
962.102	405.03
962.395	376.94
962.689	361.62
962.982	410.14
963.276	433.12
963.569	384.6
963.862	366.73
964.156	374.39
964.449	484.18
964.742	364.18
965.035	430.56
965.328	382.05
965.622	318.21
965.915	399.92
966.208	348.86
966.5	407.58
966.793	440.78
967.086	428.01
967.379	453.54
967.672	382.05
967.964	361.62
968.257	402.48
968.55	315.66
968.842	410.14
969.135	389.71
969.427	389.71
969.72	430.56
970.012	412.69
970.304	422.9
970.597	382.05
970.889	402.48
971.181	428.01
971.473	379.5
971.765	343.75
972.057	379.5
972.349	415.24
972.641	428.01
972.933	351.41
973.225	415.24
973.517	412.69
973.809	399.92
974.1	356.52
974.392	359.07
974.684	384.6
974.975	399.92
975.267	387.16
975.558	397.37
975.85	392.26
976.141	374.39
976.432	376.94
976.724	387.16
977.015	397.37
977.306	384.6
977.597	359.07
977.888	417.8
978.179	392.26
978.47	402.48
978.761	359.07
979.052	387.16
979.343	356.52
979.634	415.24
979.925	379.5
980.215	397.37
980.506	356.52
980.797	438.22
981.087	440.78
981.378	392.26
981.668	382.05
981.959	397.37
982.249	428.01
982.54	417.8
982.83	415.24
983.12	399.92
983.41	397.37
983.701	325.87
983.991	412.69
984.281	374.39
984.571	361.62
984.861	366.73
985.151	412.69
985.441	440.78
985.73	348.86
986.02	348.86
986.31	422.9
986.6	313.11
986.889	387.16
987.179	310.55
987.469	382.05
987.758	359.07
988.048	338.64
988.337	402.48
988.626	338.64
988.916	379.5
989.205	448.44
989.494	402.48
989.783	374.39
990.073	336.09
990.362	346.3
990.651	356.52
990.94	338.64
991.229	399.92
991.518	402.48
991.806	346.3
992.095	351.41
992.384	417.8
992.673	356.52
992.961	420.35
993.25	382.05
993.539	405.03
993.827	371.84
994.116	402.48
994.404	346.3
994.692	405.03
994.981	374.39
995.269	343.75
995.557	389.71
995.846	346.3
996.134	348.86
996.422	374.39
996.71	410.14
996.998	285.02
997.286	341.2
997.574	371.84
997.862	410.14
998.15	371.84
998.437	356.52
998.725	379.5
999.013	333.54
999.3	336.09
999.588	379.5
999.876	387.16
1000.163	366.73
1000.45	353.96
1000.738	387.16
1001.025	412.69
1001.313	402.48
1001.6	387.16
1001.887	399.92
1002.174	346.3
1002.461	410.14
1002.748	359.07
1003.036	453.54
1003.322	402.48
1003.609	392.26
1003.896	356.52
1004.183	433.12
1004.47	292.68
1004.757	379.5
1005.043	425.46
1005.33	371.84
1005.617	353.96
1005.903	353.96
1006.19	417.8
1006.476	425.46
1006.763	389.71
1007.049	405.03
1007.335	430.56
1007.622	371.84
1007.908	333.54
1008.194	366.73
1008.48	369.28
1008.766	371.84
1009.053	405.03
1009.339	410.14
1009.625	438.22
1009.91	458.65
1010.196	399.92
1010.482	405.03
1010.768	371.84
1011.054	412.69
1011.339	392.26
1011.625	371.84
1011.911	369.28
1012.196	394.82
1012.482	369.28
1012.767	384.6
1013.052	461.2
1013.338	356.52
1013.623	420.35
1013.908	397.37
1014.194	425.46
1014.479	351.41
1014.764	397.37
1015.049	320.77
1015.334	336.09
1015.619	374.39
1015.904	379.5
1016.189	356.52
1016.474	353.96
1016.758	356.52
1017.043	348.86
1017.328	366.73
1017.613	392.26
1017.897	405.03
1018.182	325.87
1018.466	412.69
1018.751	428.01
1019.035	399.92
1019.32	399.92
1019.604	412.69
1019.888	399.92
1020.172	399.92
1020.457	399.92
