Data from 2025-12-03_xpw_interference_micrometer_634_reference_FLMS141361__178__428.txt Node

Date: Wed Dec 03 15:51:30 MST 2025
User: james
Spectrometer: FLMS14136
Trigger mode: 0
Integration Time (sec): 1.000000E-1
Scans to average: 1
Electric dark correction enabled: true
Nonlinearity correction enabled: false
Boxcar width: 0
XAxis mode: Wavelengths
Number of Pixels in Spectrum: 2048
>>>>>Begin Spectral Data<<<<<
339.315	-37.98
339.697	-37.98
340.079	-37.98
340.461	-168.2
340.843	-76.28
341.225	-71.18
341.607	-106.92
341.989	-68.62
342.371	-63.52
342.752	-27.77
343.134	-96.71
343.516	-27.77
343.897	-20.11
344.279	53.94
344.661	46.28
345.042	7.98
345.423	5.43
345.805	36.07
346.186	117.77
346.567	99.9
346.949	115.22
347.33	171.4
347.711	242.89
348.092	263.32
348.473	176.5
348.854	184.16
349.235	278.64
349.616	309.28
349.997	293.96
350.378	347.58
350.758	306.72
351.139	347.58
351.52	306.72
351.9	390.99
352.281	311.83
352.661	368.01
353.042	368.01
353.422	378.22
353.803	398.65
354.183	345.03
354.563	454.82
354.943	434.39
355.324	429.29
355.704	332.26
356.084	385.88
356.464	462.48
356.844	462.48
357.224	408.86
357.603	401.2
357.983	355.24
358.363	408.86
358.743	413.97
359.122	322.04
359.502	337.37
359.882	457.37
360.261	424.18
360.641	329.7
361.02	385.88
361.399	362.9
361.779	350.13
362.158	396.09
362.537	347.58
362.916	319.49
363.296	319.49
363.675	368.01
364.054	406.31
364.433	403.75
364.812	362.9
365.19	388.43
365.569	347.58
365.948	365.45
366.327	390.99
366.705	324.6
367.084	357.79
367.463	332.26
367.841	324.6
368.22	301.62
368.598	345.03
368.977	352.69
369.355	355.24
369.733	355.24
370.111	293.96
370.49	396.09
370.868	339.92
371.246	324.6
371.624	299.06
372.002	355.24
372.38	411.41
372.758	327.15
373.136	390.99
373.513	337.37
373.891	319.49
374.269	342.47
374.646	373.11
375.024	327.15
375.402	378.22
375.779	388.43
376.157	334.81
376.534	339.92
376.911	352.69
377.289	332.26
377.666	362.9
378.043	375.67
378.42	362.9
378.797	365.45
379.175	421.63
379.552	365.45
379.929	288.85
380.305	462.48
380.682	380.77
381.059	444.61
381.436	390.99
381.813	332.26
382.189	454.82
382.566	378.22
382.943	329.7
383.319	393.54
383.696	421.63
384.072	401.2
384.448	368.01
384.825	342.47
385.201	380.77
385.577	413.97
385.953	388.43
386.329	434.39
386.706	293.96
387.082	332.26
387.458	390.99
387.834	352.69
388.209	360.35
388.585	375.67
388.961	390.99
389.337	408.86
389.713	365.45
390.088	337.37
390.464	365.45
390.839	424.18
391.215	419.07
391.59	396.09
391.966	403.75
392.341	375.67
392.716	329.7
393.092	368.01
393.467	334.81
393.842	390.99
394.217	339.92
394.592	388.43
394.967	413.97
395.342	390.99
395.717	368.01
396.092	322.04
396.467	357.79
396.841	380.77
397.216	419.07
397.591	362.9
397.965	355.24
398.34	424.18
398.714	337.37
399.089	362.9
399.463	396.09
399.838	447.16
400.212	406.31
400.586	398.65
400.961	421.63
401.335	421.63
401.709	406.31
402.083	406.31
402.457	352.69
402.831	337.37
403.205	327.15
403.579	385.88
403.953	426.73
404.326	385.88
404.7	322.04
405.074	373.11
405.447	452.27
405.821	421.63
406.195	442.05
406.568	401.2
406.942	472.69
407.315	465.03
407.688	434.39
408.062	388.43
408.435	393.54
408.808	429.29
409.181	401.2
409.554	350.13
409.927	337.37
410.3	411.41
410.673	378.22
411.046	357.79
411.419	429.29
411.792	383.33
412.165	429.29
412.537	347.58
412.91	383.33
413.283	403.75
413.655	411.41
414.028	378.22
414.4	388.43
414.773	477.8
415.145	426.73
415.517	419.07
415.889	398.65
416.262	403.75
416.634	385.88
417.006	339.92
417.378	362.9
417.75	408.86
418.122	385.88
418.494	416.52
418.866	403.75
419.238	426.73
419.609	383.33
419.981	452.27
420.353	355.24
420.725	416.52
421.096	375.67
421.468	421.63
421.839	444.61
422.211	431.84
422.582	380.77
422.953	411.41
423.325	429.29
423.696	416.52
424.067	439.5
424.438	403.75
424.809	306.72
425.18	444.61
425.551	385.88
425.922	439.5
426.293	390.99
426.664	403.75
427.035	411.41
427.406	447.16
427.776	393.54
428.147	368.01
428.518	406.31
428.888	383.33
429.259	319.49
429.629	370.56
429.999	516.1
430.37	360.35
430.74	406.31
431.11	419.07
431.481	383.33
431.851	390.99
432.221	403.75
432.591	329.7
432.961	378.22
433.331	299.06
433.701	383.33
434.071	396.09
434.441	408.86
434.81	403.75
435.18	444.61
435.55	380.77
435.919	396.09
436.289	383.33
436.658	365.45
437.028	436.95
437.397	413.97
437.767	401.2
438.136	396.09
438.505	396.09
438.875	329.7
439.244	411.41
439.613	398.65
439.982	319.49
440.351	380.77
440.72	357.79
441.089	362.9
441.458	398.65
441.827	337.37
442.196	378.22
442.564	516.1
442.933	447.16
443.302	393.54
443.67	383.33
444.039	373.11
444.407	385.88
444.776	421.63
445.144	345.03
445.513	365.45
445.881	390.99
446.249	375.67
446.617	393.54
446.986	406.31
447.354	431.84
447.722	388.43
448.09	426.73
448.458	406.31
448.826	375.67
449.194	388.43
449.561	393.54
449.929	467.59
450.297	421.63
450.665	431.84
451.032	429.29
451.4	431.84
451.767	385.88
452.135	424.18
452.502	424.18
452.87	388.43
453.237	362.9
453.604	416.52
453.971	457.37
454.339	416.52
454.706	424.18
455.073	401.2
455.44	431.84
455.807	411.41
456.174	406.31
456.541	503.33
456.908	429.29
457.274	429.29
457.641	352.69
458.008	396.09
458.374	413.97
458.741	419.07
459.108	408.86
459.474	345.03
459.841	390.99
460.207	329.7
460.573	398.65
460.94	378.22
461.306	365.45
461.672	465.03
462.038	347.58
462.404	413.97
462.771	403.75
463.137	380.77
463.503	401.2
463.868	429.29
464.234	401.2
464.6	385.88
464.966	424.18
465.332	439.5
465.697	357.79
466.063	388.43
466.429	462.48
466.794	401.2
467.16	419.07
467.525	413.97
467.89	383.33
468.256	373.11
468.621	408.86
468.986	434.39
469.351	421.63
469.717	401.2
470.082	385.88
470.447	424.18
470.812	406.31
471.177	362.9
471.542	449.71
471.906	360.35
472.271	334.81
472.636	411.41
473.001	431.84
473.365	383.33
473.73	449.71
474.094	421.63
474.459	403.75
474.823	403.75
475.188	457.37
475.552	439.5
475.917	419.07
476.281	339.92
476.645	390.99
477.009	304.17
477.373	368.01
477.737	352.69
478.101	424.18
478.465	347.58
478.829	380.77
479.193	342.47
479.557	370.56
479.921	452.27
480.284	475.25
480.648	413.97
481.012	385.88
481.375	434.39
481.739	424.18
482.102	406.31
482.466	355.24
482.829	462.48
483.193	411.41
483.556	421.63
483.919	390.99
484.282	380.77
484.645	373.11
485.009	500.78
485.372	413.97
485.735	337.37
486.098	393.54
486.46	477.8
486.823	459.93
487.186	488.01
487.549	373.11
487.912	375.67
488.274	426.73
488.637	408.86
488.999	442.05
489.362	396.09
489.724	426.73
490.087	385.88
490.449	403.75
490.811	408.86
491.174	360.35
491.536	380.77
491.898	355.24
492.26	385.88
492.622	368.01
492.984	393.54
493.346	449.71
493.708	452.27
494.07	462.48
494.432	413.97
494.794	396.09
495.155	434.39
495.517	342.47
495.879	398.65
496.24	447.16
496.602	370.56
496.963	431.84
497.325	416.52
497.686	439.5
498.048	401.2
498.409	413.97
498.77	368.01
499.131	411.41
499.492	408.86
499.854	429.29
500.215	431.84
500.576	424.18
500.937	475.25
501.298	419.07
501.658	424.18
502.019	439.5
502.38	421.63
502.741	401.2
503.101	388.43
503.462	396.09
503.823	419.07
504.183	434.39
504.543	388.43
504.904	444.61
505.264	416.52
505.625	362.9
505.985	396.09
506.345	403.75
506.705	396.09
507.065	426.73
507.426	401.2
507.786	488.01
508.146	396.09
508.505	370.56
508.865	360.35
509.225	403.75
509.585	447.16
509.945	401.2
510.304	403.75
510.664	388.43
511.024	426.73
511.383	380.77
511.743	403.75
512.102	431.84
512.462	378.22
512.821	401.2
513.18	383.33
513.539	401.2
513.899	434.39
514.258	454.82
514.617	393.54
514.976	375.67
515.335	408.86
515.694	385.88
516.053	416.52
516.412	365.45
516.771	472.69
517.129	454.82
517.488	350.13
517.847	396.09
518.205	436.95
518.564	408.86
518.922	319.49
519.281	388.43
519.639	421.63
519.998	411.41
520.356	403.75
520.714	459.93
521.073	449.71
521.431	424.18
521.789	347.58
522.147	396.09
522.505	419.07
522.863	434.39
523.221	339.92
523.579	342.47
523.937	355.24
524.295	398.65
524.652	319.49
525.01	362.9
525.368	411.41
525.725	523.76
526.083	434.39
526.44	413.97
526.798	390.99
527.155	398.65
527.513	444.61
527.87	396.09
528.227	431.84
528.584	403.75
528.942	393.54
529.299	375.67
529.656	467.59
530.013	337.37
530.37	370.56
530.727	370.56
531.083	401.2
531.44	421.63
531.797	424.18
532.154	465.03
532.511	378.22
532.867	393.54
533.224	424.18
533.58	457.37
533.937	436.95
534.293	357.79
534.65	385.88
535.006	411.41
535.362	396.09
535.718	431.84
536.075	444.61
536.431	355.24
536.787	362.9
537.143	380.77
537.499	383.33
537.855	442.05
538.211	421.63
538.567	411.41
538.923	454.82
539.278	396.09
539.634	408.86
539.99	398.65
540.345	413.97
540.701	355.24
541.056	416.52
541.412	408.86
541.767	485.46
542.123	339.92
542.478	345.03
542.833	401.2
543.188	470.14
543.544	421.63
543.899	449.71
544.254	375.67
544.609	419.07
544.964	388.43
545.319	424.18
545.674	408.86
546.029	334.81
546.383	459.93
546.738	449.71
547.093	390.99
547.447	413.97
547.802	452.27
548.157	342.47
548.511	368.01
548.866	388.43
549.22	442.05
549.574	403.75
549.929	370.56
550.283	408.86
550.637	388.43
550.991	403.75
551.345	401.2
551.699	403.75
552.053	398.65
552.407	424.18
552.761	426.73
553.115	373.11
553.469	375.67
553.823	459.93
554.176	401.2
554.53	436.95
554.884	370.56
555.237	666.75
555.591	454.82
555.944	439.5
556.298	472.69
556.651	475.25
557.005	398.65
557.358	442.05
557.711	393.54
558.064	424.18
558.417	390.99
558.771	470.14
559.124	444.61
559.477	431.84
559.83	350.13
560.182	398.65
560.535	322.04
560.888	370.56
561.241	413.97
561.594	388.43
561.946	419.07
562.299	385.88
562.651	403.75
563.004	396.09
563.356	403.75
563.709	393.54
564.061	426.73
564.413	416.52
564.766	426.73
565.118	365.45
565.47	396.09
565.822	390.99
566.174	365.45
566.526	411.41
566.878	406.31
567.23	416.52
567.582	454.82
567.934	462.48
568.286	429.29
568.638	416.52
568.989	380.77
569.341	370.56
569.693	352.69
570.044	373.11
570.396	421.63
570.747	429.29
571.098	434.39
571.45	385.88
571.801	396.09
572.152	362.9
572.504	393.54
572.855	416.52
573.206	365.45
573.557	442.05
573.908	457.37
574.259	452.27
574.61	452.27
574.961	396.09
575.311	429.29
575.662	370.56
576.013	398.65
576.364	342.47
576.714	416.52
577.065	393.54
577.415	403.75
577.766	419.07
578.116	477.8
578.467	452.27
578.817	416.52
579.167	421.63
579.518	439.5
579.868	508.44
580.218	403.75
580.568	406.31
580.918	536.53
581.268	480.35
581.618	416.52
581.968	421.63
582.318	396.09
582.668	365.45
583.017	444.61
583.367	498.23
583.717	398.65
584.066	380.77
584.416	482.91
584.765	421.63
585.115	447.16
585.464	449.71
585.814	413.97
586.163	429.29
586.512	398.65
586.862	452.27
587.211	403.75
587.56	345.03
587.909	368.01
588.258	337.37
588.607	373.11
588.956	462.48
589.305	426.73
589.654	357.79
590.002	419.07
590.351	334.81
590.7	337.37
591.048	457.37
591.397	398.65
591.746	378.22
592.094	380.77
592.443	413.97
592.791	370.56
593.139	362.9
593.488	337.37
593.836	368.01
594.184	396.09
594.532	398.65
594.88	390.99
595.228	408.86
595.576	454.82
595.924	421.63
596.272	393.54
596.62	454.82
596.968	408.86
597.316	360.35
597.664	465.03
598.011	385.88
598.359	375.67
598.706	408.86
599.054	398.65
599.402	457.37
599.749	442.05
600.096	380.77
600.444	393.54
600.791	419.07
601.138	411.41
601.485	465.03
601.833	403.75
602.18	385.88
602.527	403.75
602.874	388.43
603.221	411.41
603.568	396.09
603.914	350.13
604.261	375.67
604.608	373.11
604.955	347.58
605.301	345.03
605.648	368.01
605.995	462.48
606.341	370.56
606.688	398.65
607.034	436.95
607.38	424.18
607.727	393.54
608.073	434.39
608.419	383.33
608.765	436.95
609.112	416.52
609.458	421.63
609.804	380.77
610.15	334.81
610.496	350.13
610.842	380.77
611.187	403.75
611.533	434.39
611.879	360.35
612.225	373.11
612.57	454.82
612.916	416.52
613.261	380.77
613.607	383.33
613.952	360.35
614.298	488.01
614.643	431.84
614.989	378.22
615.334	411.41
615.679	383.33
616.024	385.88
616.369	393.54
616.714	403.75
617.059	357.79
617.404	390.99
617.749	406.31
618.094	426.73
618.439	426.73
618.784	373.11
619.129	388.43
619.473	457.37
619.818	457.37
620.163	488.01
620.507	390.99
620.852	337.37
621.196	334.81
621.54	401.2
621.885	452.27
622.229	419.07
622.573	362.9
622.918	329.7
623.262	449.71
623.606	419.07
623.95	408.86
624.294	375.67
624.638	429.29
624.982	439.5
625.326	475.25
625.67	419.07
626.013	411.41
626.357	362.9
626.701	398.65
627.044	385.88
627.388	505.89
627.731	378.22
628.075	339.92
628.418	449.71
628.762	467.59
629.105	385.88
629.448	454.82
629.792	449.71
630.135	368.01
630.478	416.52
630.821	324.6
631.164	421.63
631.507	362.9
631.85	429.29
632.193	365.45
632.536	355.24
632.879	434.39
633.221	467.59
633.564	373.11
633.907	436.95
634.249	396.09
634.592	299.06
634.935	406.31
635.277	365.45
635.619	442.05
635.962	278.64
636.304	388.43
636.646	401.2
636.989	442.05
637.331	439.5
637.673	347.58
638.015	434.39
638.357	368.01
638.699	413.97
639.041	434.39
639.383	449.71
639.725	421.63
640.067	424.18
640.408	401.2
640.75	334.81
641.092	342.47
641.433	383.33
641.775	385.88
642.116	408.86
642.458	416.52
642.799	365.45
643.141	365.45
643.482	462.48
643.823	357.79
644.164	375.67
644.506	498.23
644.847	436.95
645.188	383.33
645.529	347.58
645.87	447.16
646.211	421.63
646.552	457.37
646.893	447.16
647.233	337.37
647.574	365.45
647.915	403.75
648.255	411.41
648.596	416.52
648.937	419.07
649.277	355.24
649.618	350.13
649.958	444.61
650.298	406.31
650.639	378.22
650.979	390.99
651.319	398.65
651.659	406.31
651.999	401.2
652.339	368.01
652.679	393.54
653.019	378.22
653.359	406.31
653.699	419.07
654.039	408.86
654.379	385.88
654.719	403.75
655.058	436.95
655.398	393.54
655.737	465.03
656.077	396.09
656.416	370.56
656.756	411.41
657.095	370.56
657.435	462.48
657.774	426.73
658.113	352.69
658.452	337.37
658.792	398.65
659.131	419.07
659.47	416.52
659.809	375.67
660.148	393.54
660.487	373.11
660.826	429.29
661.164	370.56
661.503	396.09
661.842	436.95
662.181	309.28
662.519	378.22
662.858	424.18
663.196	385.88
663.535	334.81
663.873	378.22
664.212	398.65
664.55	442.05
664.888	355.24
665.226	319.49
665.565	388.43
665.903	628.45
666.241	439.5
666.579	390.99
666.917	439.5
667.255	408.86
667.593	360.35
667.931	413.97
668.268	347.58
668.606	398.65
668.944	383.33
669.282	449.71
669.619	457.37
669.957	429.29
670.294	373.11
670.632	329.7
670.969	408.86
671.307	472.69
671.644	357.79
671.981	431.84
672.318	449.71
672.656	413.97
672.993	383.33
673.33	393.54
673.667	434.39
674.004	373.11
674.341	370.56
674.678	426.73
675.015	416.52
675.351	503.33
675.688	488.01
676.025	444.61
676.362	375.67
676.698	416.52
677.035	398.65
677.371	380.77
677.708	390.99
678.044	350.13
678.38	365.45
678.717	378.22
679.053	403.75
679.389	362.9
679.725	454.82
680.062	421.63
680.398	337.37
680.734	401.2
681.07	416.52
681.406	436.95
681.742	398.65
682.077	424.18
682.413	454.82
682.749	365.45
683.085	365.45
683.42	413.97
683.756	421.63
684.091	406.31
684.427	319.49
684.762	319.49
685.098	360.35
685.433	322.04
685.768	411.41
686.104	413.97
686.439	347.58
686.774	383.33
687.109	370.56
687.444	398.65
687.779	380.77
688.114	388.43
688.449	380.77
688.784	347.58
689.119	393.54
689.454	352.69
689.789	362.9
690.123	368.01
690.458	434.39
690.792	365.45
691.127	411.41
691.461	396.09
691.796	408.86
692.13	406.31
692.465	360.35
692.799	398.65
693.133	406.31
693.467	408.86
693.802	370.56
694.136	357.79
694.47	378.22
694.804	426.73
695.138	378.22
695.472	403.75
695.806	342.47
696.139	332.26
696.473	482.91
696.807	398.65
697.141	442.05
697.474	370.56
697.808	426.73
698.141	352.69
698.475	434.39
698.808	383.33
699.142	429.29
699.475	421.63
699.808	431.84
700.142	365.45
700.475	406.31
700.808	413.97
701.141	332.26
701.474	439.5
701.807	396.09
702.14	360.35
702.473	355.24
702.806	390.99
703.139	434.39
703.472	390.99
703.804	408.86
704.137	339.92
704.47	419.07
704.802	416.52
705.135	439.5
705.467	419.07
705.8	459.93
706.132	465.03
706.464	442.05
706.797	337.37
707.129	378.22
707.461	378.22
707.793	380.77
708.125	398.65
708.457	413.97
708.789	429.29
709.121	413.97
709.453	408.86
709.785	357.79
710.117	390.99
710.449	388.43
710.781	339.92
711.112	424.18
711.444	408.86
711.775	424.18
712.107	378.22
712.438	383.33
712.77	426.73
713.101	439.5
713.433	462.48
713.764	413.97
714.095	436.95
714.426	370.56
714.757	434.39
715.089	403.75
715.42	365.45
715.751	390.99
716.082	403.75
716.412	380.77
716.743	329.7
717.074	375.67
717.405	408.86
717.736	355.24
718.066	393.54
718.397	408.86
718.727	375.67
719.058	378.22
719.388	390.99
719.719	442.05
720.049	424.18
720.38	396.09
720.71	378.22
721.04	311.83
721.37	296.51
721.7	426.73
722.031	406.31
722.361	434.39
722.691	411.41
723.021	388.43
723.35	385.88
723.68	360.35
724.01	406.31
724.34	373.11
724.67	413.97
724.999	380.77
725.329	413.97
725.658	426.73
725.988	447.16
726.317	452.27
726.647	383.33
726.976	452.27
727.306	401.2
727.635	390.99
727.964	362.9
728.293	355.24
728.622	459.93
728.952	429.29
729.281	413.97
729.61	411.41
729.939	452.27
730.267	408.86
730.596	434.39
730.925	396.09
731.254	388.43
731.583	434.39
731.911	449.71
732.24	431.84
732.568	467.59
732.897	444.61
733.225	390.99
733.554	419.07
733.882	424.18
734.21	411.41
734.539	365.45
734.867	408.86
735.195	398.65
735.523	411.41
735.851	393.54
736.179	360.35
736.507	434.39
736.835	393.54
737.163	352.69
737.491	431.84
737.819	378.22
738.147	380.77
738.474	396.09
738.802	396.09
739.13	357.79
739.457	332.26
739.785	342.47
740.112	360.35
740.44	396.09
740.767	419.07
741.094	385.88
741.422	334.81
741.749	419.07
742.076	380.77
742.403	352.69
742.73	411.41
743.057	452.27
743.384	373.11
743.711	429.29
744.038	375.67
744.365	408.86
744.692	419.07
745.018	370.56
745.345	388.43
745.672	442.05
745.998	398.65
746.325	362.9
746.651	383.33
746.978	373.11
747.304	434.39
747.631	454.82
747.957	431.84
748.283	390.99
748.61	375.67
748.936	406.31
749.262	380.77
749.588	362.9
749.914	352.69
750.24	467.59
750.566	324.6
750.892	322.04
751.218	390.99
751.543	411.41
751.869	416.52
752.195	503.33
752.521	355.24
752.846	342.47
753.172	424.18
753.497	411.41
753.823	388.43
754.148	401.2
754.473	426.73
754.799	406.31
755.124	398.65
755.449	449.71
755.774	424.18
756.1	401.2
756.425	416.52
756.75	454.82
757.075	403.75
757.4	585.04
757.724	383.33
758.049	436.95
758.374	380.77
758.699	452.27
759.024	413.97
759.348	436.95
759.673	360.35
759.997	332.26
760.322	449.71
760.646	452.27
760.971	319.49
761.295	368.01
761.619	472.69
761.944	510.99
762.268	424.18
762.592	449.71
762.916	475.25
763.24	495.67
763.564	429.29
763.888	528.87
764.212	500.78
764.536	554.4
764.86	620.79
765.184	628.45
765.508	610.58
765.831	623.34
766.155	934.86
766.478	697.39
766.802	651.43
767.126	733.14
767.449	848.04
767.772	906.77
768.096	878.68
768.419	927.2
768.742	896.55
769.066	1006.35
769.389	1044.65
769.712	1057.42
770.035	1085.5
770.358	1243.81
770.681	1274.45
771.004	1241.26
771.327	1228.49
771.65	1343.4
771.972	1356.16
772.295	1402.12
772.618	1371.48
772.941	1440.42
773.263	1509.37
773.586	1565.54
773.908	1665.12
774.231	1649.8
774.553	1864.29
774.875	1948.55
775.198	2032.81
775.52	1930.67
775.842	1887.27
776.164	1800.45
776.487	1861.73
776.809	1945.99
777.131	1971.53
777.453	1933.23
777.775	1925.57
778.096	2145.16
778.418	2106.86
778.74	2027.7
779.062	2078.77
779.384	2203.88
779.705	2523.06
780.027	2809.03
780.348	2862.66
780.67	2724.77
780.991	2816.7
781.313	3130.76
781.634	3217.58
781.955	2911.17
782.277	2934.15
782.598	2995.43
782.919	2806.48
783.24	2987.77
783.561	2957.13
783.882	2916.28
784.203	2936.7
784.524	3041.39
784.845	2908.62
785.166	2816.7
785.487	2837.12
785.807	2847.34
786.128	2607.32
786.449	2637.96
786.769	2811.59
787.09	2964.79
787.41	3087.35
787.731	3238
788.051	3544.41
788.372	3503.55
788.692	3758.89
789.012	3799.75
789.332	3942.73
789.653	4080.62
789.973	4289.99
790.293	4126.58
790.613	3564.83
790.933	3467.81
791.253	3337.58
791.573	3130.76
791.893	3018.41
792.212	2916.28
792.532	2857.55
792.852	2581.78
793.171	2576.68
793.491	2484.76
793.811	2505.18
794.13	2653.28
794.45	2551.14
794.769	2579.23
795.088	2844.78
795.408	2834.57
795.727	3051.61
796.046	2888.19
796.365	2837.12
796.684	2535.82
797.004	2602.21
797.323	2694.13
797.642	3148.63
797.96	3097.57
798.279	2921.38
798.598	2729.88
798.917	2571.57
799.236	2579.23
799.554	2436.24
799.873	2303.47
800.192	2359.64
800.51	2270.27
800.829	2382.62
801.147	2290.7
801.466	2270.27
801.784	2165.58
802.102	2119.62
802.421	2252.4
802.739	2385.17
803.057	2211.54
803.375	2129.84
803.693	2066
804.011	2193.67
804.329	2326.45
804.647	2214.1
804.965	2066
805.283	2002.17
805.601	2009.83
805.918	1933.23
806.236	1831.09
806.554	1757.04
806.871	1833.64
807.189	1902.59
807.507	2012.38
807.824	1991.95
808.141	1772.36
808.459	1662.57
808.776	1394.46
809.093	1307.65
809.411	1266.79
809.728	1136.57
810.045	1172.32
810.362	1233.6
810.679	1195.3
810.996	1210.62
811.313	1353.61
811.63	1371.48
811.947	1361.27
812.264	1205.51
812.58	1254.03
812.897	1182.53
813.214	1179.98
813.53	1236.15
813.847	1256.58
814.163	1192.75
814.48	1264.24
814.796	1228.49
815.113	1225.94
815.429	1144.23
815.745	1054.86
816.061	1105.93
816.378	1052.31
816.694	1093.16
817.01	1113.59
817.326	1021.67
817.642	1047.2
817.958	975.71
818.274	904.21
818.59	894
818.905	837.83
819.221	830.17
819.537	830.17
819.852	871.02
820.168	860.81
820.484	878.68
820.799	817.4
821.115	853.15
821.43	888.89
821.745	802.08
822.061	807.19
822.376	756.12
822.691	784.21
823.006	791.87
823.322	743.35
823.637	689.73
823.952	669.3
824.267	692.28
824.582	656.54
824.897	697.39
825.211	697.39
825.526	610.58
825.841	595.26
826.156	653.98
826.47	592.7
826.785	536.53
827.1	579.94
827.414	597.81
827.729	587.6
828.043	602.92
828.357	620.79
828.672	554.4
828.986	564.62
829.3	549.3
829.614	556.96
829.929	554.4
830.243	531.42
830.557	556.96
830.871	539.08
831.185	457.37
831.499	551.85
831.812	500.78
832.126	625.9
832.44	615.68
832.754	447.16
833.067	505.89
833.381	572.28
833.695	480.35
834.008	480.35
834.322	513.55
834.635	528.87
834.948	439.5
835.262	454.82
835.575	459.93
835.888	485.46
836.201	426.73
836.515	449.71
836.828	436.95
837.141	459.93
837.454	436.95
837.767	431.84
838.08	490.57
838.392	401.2
838.705	337.37
839.018	503.33
839.331	403.75
839.643	480.35
839.956	439.5
840.269	454.82
840.581	449.71
840.894	493.12
841.206	444.61
841.519	572.28
841.831	477.8
842.143	378.22
842.455	368.01
842.768	482.91
843.08	434.39
843.392	447.16
843.704	424.18
844.016	388.43
844.328	378.22
844.64	421.63
844.952	406.31
845.263	380.77
845.575	505.89
845.887	373.11
846.199	459.93
846.51	406.31
846.822	454.82
847.133	436.95
847.445	426.73
847.756	424.18
848.068	375.67
848.379	385.88
848.69	421.63
849.002	442.05
849.313	406.31
849.624	390.99
849.935	390.99
850.246	408.86
850.557	408.86
850.868	421.63
851.179	419.07
851.49	378.22
851.801	357.79
852.112	383.33
852.422	378.22
852.733	311.83
853.044	424.18
853.354	434.39
853.665	355.24
853.975	327.15
854.286	375.67
854.596	396.09
854.906	355.24
855.217	385.88
855.527	357.79
855.837	411.41
856.147	385.88
856.458	355.24
856.768	345.03
857.078	347.58
857.388	352.69
857.698	304.17
858.007	345.03
858.317	426.73
858.627	393.54
858.937	380.77
859.246	436.95
859.556	390.99
859.866	406.31
860.175	401.2
860.485	424.18
860.794	339.92
861.104	352.69
861.413	385.88
861.722	408.86
862.032	436.95
862.341	419.07
862.65	411.41
862.959	324.6
863.268	480.35
863.577	390.99
863.886	388.43
864.195	362.9
864.504	365.45
864.813	368.01
865.122	301.62
865.43	434.39
865.739	431.84
866.048	406.31
866.356	378.22
866.665	380.77
866.973	350.13
867.282	306.72
867.59	390.99
867.899	398.65
868.207	434.39
868.515	342.47
868.823	383.33
869.132	398.65
869.44	362.9
869.748	406.31
870.056	396.09
870.364	396.09
870.672	398.65
870.98	380.77
871.288	380.77
871.595	396.09
871.903	355.24
872.211	383.33
872.518	454.82
872.826	383.33
873.134	431.84
873.441	375.67
873.749	390.99
874.056	355.24
874.363	355.24
874.671	373.11
874.978	370.56
875.285	398.65
875.592	339.92
875.9	452.27
876.207	406.31
876.514	393.54
876.821	398.65
877.128	332.26
877.435	368.01
877.741	401.2
878.048	380.77
878.355	337.37
878.662	401.2
878.968	378.22
879.275	342.47
879.582	413.97
879.888	408.86
880.195	393.54
880.501	368.01
880.807	380.77
881.114	385.88
881.42	357.79
881.726	380.77
882.032	378.22
882.339	337.37
882.645	375.67
882.951	398.65
883.257	408.86
883.563	373.11
883.869	475.25
884.174	401.2
884.48	373.11
884.786	470.14
885.092	396.09
885.397	375.67
885.703	342.47
886.009	360.35
886.314	398.65
886.62	375.67
886.925	334.81
887.231	329.7
887.536	383.33
887.841	281.19
888.146	365.45
888.452	375.67
888.757	388.43
889.062	365.45
889.367	411.41
889.672	365.45
889.977	283.74
890.282	393.54
890.587	411.41
890.892	362.9
891.196	406.31
891.501	442.05
891.806	482.91
892.11	403.75
892.415	442.05
892.72	390.99
893.024	378.22
893.328	413.97
893.633	370.56
893.937	373.11
894.242	352.69
894.546	362.9
894.85	319.49
895.154	424.18
895.458	390.99
895.762	365.45
896.066	431.84
896.37	398.65
896.674	385.88
896.978	419.07
897.282	350.13
897.586	413.97
897.89	383.33
898.193	396.09
898.497	480.35
898.801	383.33
899.104	426.73
899.408	447.16
899.711	452.27
900.014	398.65
900.318	396.09
900.621	411.41
900.924	324.6
901.228	408.86
901.531	429.29
901.834	375.67
902.137	439.5
902.44	452.27
902.743	357.79
903.046	373.11
903.349	416.52
903.652	311.83
903.955	362.9
904.257	413.97
904.56	370.56
904.863	390.99
905.165	339.92
905.468	416.52
905.77	385.88
906.073	429.29
906.375	388.43
906.678	419.07
906.98	406.31
907.282	375.67
907.584	327.15
907.887	398.65
908.189	403.75
908.491	365.45
908.793	334.81
909.095	373.11
909.397	388.43
909.699	370.56
910.001	370.56
910.302	401.2
910.604	447.16
910.906	434.39
911.208	439.5
911.509	439.5
911.811	408.86
912.112	421.63
912.414	401.2
912.715	454.82
913.017	398.65
913.318	408.86
913.619	459.93
913.92	439.5
914.222	406.31
914.523	378.22
914.824	383.33
915.125	357.79
915.426	368.01
915.727	406.31
916.028	327.15
916.329	401.2
916.63	388.43
916.93	444.61
917.231	431.84
917.532	368.01
917.832	383.33
918.133	378.22
918.434	339.92
918.734	301.62
919.034	342.47
919.335	380.77
919.635	393.54
919.935	383.33
920.236	411.41
920.536	385.88
920.836	347.58
921.136	365.45
921.436	503.33
921.736	459.93
922.036	385.88
922.336	352.69
922.636	447.16
922.936	424.18
923.236	388.43
923.535	390.99
923.835	457.37
924.135	396.09
924.434	355.24
924.734	362.9
925.033	465.03
925.333	365.45
925.632	462.48
925.932	447.16
926.231	406.31
926.53	406.31
926.83	396.09
927.129	413.97
927.428	472.69
927.727	329.7
928.026	411.41
928.325	406.31
928.624	385.88
928.923	316.94
929.222	449.71
929.52	373.11
929.819	390.99
930.118	390.99
930.417	373.11
930.715	347.58
931.014	370.56
931.312	444.61
931.611	373.11
931.909	324.6
932.207	357.79
932.506	383.33
932.804	334.81
933.102	431.84
933.401	385.88
933.699	332.26
933.997	401.2
934.295	390.99
934.593	480.35
934.891	380.77
935.189	380.77
935.487	352.69
935.784	357.79
936.082	413.97
936.38	434.39
936.677	413.97
936.975	375.67
937.273	373.11
937.57	436.95
937.868	426.73
938.165	360.35
938.463	431.84
938.76	462.48
939.057	385.88
939.354	416.52
939.652	373.11
939.949	424.18
940.246	383.33
940.543	436.95
940.84	329.7
941.137	350.13
941.434	396.09
941.731	345.03
942.028	390.99
942.324	424.18
942.621	368.01
942.918	426.73
943.214	431.84
943.511	393.54
943.807	385.88
944.104	383.33
944.4	375.67
944.697	429.29
944.993	350.13
945.29	380.77
945.586	431.84
945.882	370.56
946.178	429.29
946.474	413.97
946.77	383.33
947.066	383.33
947.362	388.43
947.658	388.43
947.954	334.81
948.25	350.13
948.546	406.31
948.842	393.54
949.137	296.51
949.433	401.2
949.729	347.58
950.024	339.92
950.32	355.24
950.615	337.37
950.91	393.54
951.206	439.5
951.501	398.65
951.796	390.99
952.092	403.75
952.387	477.8
952.682	434.39
952.977	388.43
953.272	408.86
953.567	421.63
953.862	360.35
954.157	370.56
954.452	393.54
954.747	362.9
955.041	388.43
955.336	434.39
955.631	383.33
955.925	350.13
956.22	401.2
956.514	444.61
956.809	411.41
957.103	406.31
957.398	459.93
957.692	408.86
957.986	334.81
958.281	378.22
958.575	421.63
958.869	429.29
959.163	368.01
959.457	390.99
959.751	439.5
960.045	419.07
960.339	393.54
960.633	434.39
960.927	398.65
961.221	449.71
961.514	373.11
961.808	396.09
962.102	406.31
962.395	362.9
962.689	408.86
962.982	385.88
963.276	406.31
963.569	472.69
963.862	390.99
964.156	362.9
964.449	416.52
964.742	406.31
965.035	362.9
965.328	357.79
965.622	467.59
965.915	426.73
966.208	416.52
966.5	396.09
966.793	429.29
967.086	421.63
967.379	385.88
967.672	370.56
967.964	396.09
968.257	368.01
968.55	388.43
968.842	396.09
969.135	408.86
969.427	406.31
969.72	362.9
970.012	362.9
970.304	452.27
970.597	444.61
970.889	411.41
971.181	421.63
971.473	447.16
971.765	368.01
972.057	457.37
972.349	373.11
972.641	347.58
972.933	375.67
973.225	408.86
973.517	421.63
973.809	457.37
974.1	434.39
974.392	299.06
974.684	439.5
974.975	403.75
975.267	385.88
975.558	406.31
975.85	378.22
976.141	362.9
976.432	390.99
976.724	380.77
977.015	375.67
977.306	398.65
977.597	375.67
977.888	485.46
978.179	403.75
978.47	360.35
978.761	383.33
979.052	426.73
979.343	416.52
979.634	421.63
979.925	362.9
980.215	355.24
980.506	401.2
980.797	385.88
981.087	378.22
981.378	375.67
981.668	401.2
981.959	459.93
982.249	411.41
982.54	424.18
982.83	380.77
983.12	352.69
983.41	362.9
983.701	413.97
983.991	339.92
984.281	413.97
984.571	380.77
984.861	401.2
985.151	447.16
985.441	393.54
985.73	401.2
986.02	368.01
986.31	434.39
986.6	416.52
986.889	385.88
987.179	383.33
987.469	439.5
987.758	360.35
988.048	360.35
988.337	416.52
988.626	380.77
988.916	408.86
989.205	393.54
989.494	459.93
989.783	406.31
990.073	368.01
990.362	419.07
990.651	385.88
990.94	439.5
991.229	355.24
991.518	444.61
991.806	429.29
992.095	406.31
992.384	408.86
992.673	385.88
992.961	401.2
993.25	419.07
993.539	385.88
993.827	419.07
994.116	329.7
994.404	306.72
994.692	357.79
994.981	416.52
995.269	362.9
995.557	454.82
995.846	362.9
996.134	398.65
996.422	401.2
996.71	365.45
996.998	365.45
997.286	355.24
997.574	378.22
997.862	342.47
998.15	416.52
998.437	457.37
998.725	431.84
999.013	388.43
999.3	401.2
999.588	385.88
999.876	385.88
1000.163	424.18
1000.45	403.75
1000.738	388.43
1001.025	396.09
1001.313	360.35
1001.6	390.99
1001.887	360.35
1002.174	434.39
1002.461	390.99
1002.748	368.01
1003.036	383.33
1003.322	398.65
1003.609	401.2
1003.896	408.86
1004.183	393.54
1004.47	345.03
1004.757	327.15
1005.043	388.43
1005.33	368.01
1005.617	380.77
1005.903	350.13
1006.19	357.79
1006.476	368.01
1006.763	311.83
1007.049	429.29
1007.335	362.9
1007.622	378.22
1007.908	373.11
1008.194	401.2
1008.48	378.22
1008.766	396.09
1009.053	454.82
1009.339	385.88
1009.625	393.54
1009.91	362.9
1010.196	401.2
1010.482	390.99
1010.768	370.56
1011.054	375.67
1011.339	462.48
1011.625	378.22
1011.911	424.18
1012.196	383.33
1012.482	396.09
1012.767	373.11
1013.052	357.79
1013.338	436.95
1013.623	390.99
1013.908	360.35
1014.194	390.99
1014.479	470.14
1014.764	365.45
1015.049	383.33
1015.334	388.43
1015.619	388.43
1015.904	444.61
1016.189	365.45
1016.474	350.13
1016.758	378.22
1017.043	398.65
1017.328	421.63
1017.613	406.31
1017.897	393.54
1018.182	424.18
1018.466	316.94
1018.751	357.79
1019.035	355.24
1019.32	411.41
1019.604	426.73
1019.888	419.07
1020.172	419.07
1020.457	419.07
