Data from 2025-12-03_xpw_interference_micrometer_634_reference_FLMS141361__195__445.txt Node

Date: Wed Dec 03 15:51:32 MST 2025
User: james
Spectrometer: FLMS14136
Trigger mode: 0
Integration Time (sec): 1.000000E-1
Scans to average: 1
Electric dark correction enabled: true
Nonlinearity correction enabled: false
Boxcar width: 0
XAxis mode: Wavelengths
Number of Pixels in Spectrum: 2048
>>>>>Begin Spectral Data<<<<<
339.315	-102.77
339.697	-102.77
340.079	-102.77
340.461	-102.77
340.843	-61.92
341.225	-36.39
341.607	-102.77
341.989	-120.65
342.371	-87.45
342.752	-102.77
343.134	-49.15
343.516	-41.49
343.897	-56.81
344.279	1.92
344.661	65.75
345.042	45.32
345.423	45.32
345.805	63.2
346.186	65.75
346.567	150.01
346.949	160.22
347.33	185.76
347.711	167.88
348.092	129.58
348.473	216.4
348.854	201.08
349.235	259.81
349.616	252.15
349.997	262.36
350.378	259.81
350.758	364.49
351.139	323.64
351.52	364.49
351.9	308.32
352.281	308.32
352.661	354.28
353.042	359.39
353.422	384.92
353.803	346.62
354.183	387.48
354.563	435.99
354.943	351.73
355.324	390.03
355.704	428.33
356.084	361.94
356.464	364.49
356.844	354.28
357.224	310.87
357.603	361.94
357.983	318.53
358.363	395.14
358.743	344.07
359.122	456.42
359.502	384.92
359.882	382.37
360.261	338.96
360.641	410.46
361.02	364.49
361.399	364.49
361.779	390.03
362.158	397.69
362.537	361.94
362.916	344.07
363.296	410.46
363.675	392.58
364.054	346.62
364.433	364.49
364.812	359.39
365.19	305.77
365.569	395.14
365.948	423.22
366.327	400.24
366.705	402.8
367.084	382.37
367.463	359.39
367.841	344.07
368.22	300.66
368.598	369.6
368.977	379.81
369.355	331.3
369.733	379.81
370.111	364.49
370.49	326.19
370.868	300.66
371.246	328.75
371.624	372.15
372.002	313.43
372.38	305.77
372.758	379.81
373.136	336.41
373.513	344.07
373.891	395.14
374.269	346.62
374.646	321.09
375.024	413.01
375.402	384.92
375.779	384.92
376.157	331.3
376.534	364.49
376.911	344.07
377.289	369.6
377.666	303.21
378.043	303.21
378.42	349.17
378.797	338.96
379.175	418.12
379.552	390.03
379.929	298.11
380.305	341.51
380.682	392.58
381.059	336.41
381.436	295.55
381.813	305.77
382.189	379.81
382.566	374.71
382.943	310.87
383.319	331.3
383.696	407.9
384.072	280.23
384.448	354.28
384.825	384.92
385.201	446.2
385.577	397.69
385.953	395.14
386.329	344.07
386.706	364.49
387.082	308.32
387.458	346.62
387.834	364.49
388.209	384.92
388.585	369.6
388.961	367.05
389.337	361.94
389.713	349.17
390.088	369.6
390.464	351.73
390.839	387.48
391.215	379.81
391.59	326.19
391.966	346.62
392.341	364.49
392.716	372.15
393.092	387.48
393.467	270.02
393.842	336.41
394.217	384.92
394.592	374.71
394.967	356.83
395.342	379.81
395.717	397.69
396.092	282.79
396.467	349.17
396.841	413.01
397.216	367.05
397.591	372.15
397.965	333.85
398.34	310.87
398.714	364.49
399.089	423.22
399.463	354.28
399.838	338.96
400.212	415.56
400.586	349.17
400.961	369.6
401.335	344.07
401.709	331.3
402.083	369.6
402.457	315.98
402.831	402.8
403.205	333.85
403.579	410.46
403.953	387.48
404.326	387.48
404.7	354.28
405.074	379.81
405.447	336.41
405.821	387.48
406.195	402.8
406.568	338.96
406.942	413.01
407.315	372.15
407.688	402.8
408.062	349.17
408.435	341.51
408.808	379.81
409.181	384.92
409.554	364.49
409.927	407.9
410.3	446.2
410.673	377.26
411.046	405.35
411.419	410.46
411.792	423.22
412.165	471.74
412.537	418.12
412.91	420.67
413.283	372.15
413.655	384.92
414.028	367.05
414.4	387.48
414.773	423.22
415.145	430.88
415.517	415.56
415.889	356.83
416.262	397.69
416.634	395.14
417.006	346.62
417.378	338.96
417.75	392.58
418.122	351.73
418.494	405.35
418.866	397.69
419.238	438.54
419.609	379.81
419.981	349.17
420.353	400.24
420.725	423.22
421.096	367.05
421.468	346.62
421.839	367.05
422.211	341.51
422.582	359.39
422.953	372.15
423.325	361.94
423.696	387.48
424.067	379.81
424.438	372.15
424.809	507.48
425.18	405.35
425.551	361.94
425.922	351.73
426.293	349.17
426.664	359.39
427.035	441.1
427.406	420.67
427.776	379.81
428.147	433.44
428.518	372.15
428.888	397.69
429.259	392.58
429.629	382.37
429.999	390.03
430.37	390.03
430.74	351.73
431.11	390.03
431.481	354.28
431.851	382.37
432.221	418.12
432.591	446.2
432.961	387.48
433.331	390.03
433.701	395.14
434.071	433.44
434.441	400.24
434.81	438.54
435.18	377.26
435.55	425.78
435.919	374.71
436.289	397.69
436.658	387.48
437.028	423.22
437.397	425.78
437.767	415.56
438.136	351.73
438.505	387.48
438.875	415.56
439.244	364.49
439.613	430.88
439.982	395.14
440.351	443.65
440.72	405.35
441.089	430.88
441.458	351.73
441.827	425.78
442.196	400.24
442.564	466.63
442.933	428.33
443.302	359.39
443.67	471.74
444.039	407.9
444.407	415.56
444.776	387.48
445.144	361.94
445.513	387.48
445.881	367.05
446.249	405.35
446.617	407.9
446.986	425.78
447.354	361.94
447.722	351.73
448.09	374.71
448.458	402.8
448.826	400.24
449.194	338.96
449.561	364.49
449.929	333.85
450.297	405.35
450.665	453.86
451.032	418.12
451.4	344.07
451.767	410.46
452.135	384.92
452.502	420.67
452.87	392.58
453.237	390.03
453.604	367.05
453.971	425.78
454.339	372.15
454.706	364.49
455.073	428.33
455.44	423.22
455.807	400.24
456.174	384.92
456.541	384.92
456.908	448.76
457.274	400.24
457.641	443.65
458.008	420.67
458.374	441.1
458.741	413.01
459.108	418.12
459.474	354.28
459.841	407.9
460.207	387.48
460.573	379.81
460.94	377.26
461.306	441.1
461.672	372.15
462.038	372.15
462.404	346.62
462.771	367.05
463.137	377.26
463.503	415.56
463.868	441.1
464.234	407.9
464.6	423.22
464.966	351.73
465.332	379.81
465.697	361.94
466.063	413.01
466.429	425.78
466.794	435.99
467.16	382.37
467.525	390.03
467.89	451.31
468.256	384.92
468.621	410.46
468.986	384.92
469.351	433.44
469.717	387.48
470.082	400.24
470.447	341.51
470.812	400.24
471.177	420.67
471.542	407.9
471.906	361.94
472.271	395.14
472.636	443.65
473.001	469.18
473.365	474.29
473.73	476.84
474.094	456.42
474.459	430.88
474.823	351.73
475.188	364.49
475.552	369.6
475.917	420.67
476.281	433.44
476.645	425.78
477.009	369.6
477.373	402.8
477.737	413.01
478.101	451.31
478.465	405.35
478.829	310.87
479.193	354.28
479.557	390.03
479.921	346.62
480.284	379.81
480.648	451.31
481.012	379.81
481.375	433.44
481.739	474.29
482.102	479.4
482.466	367.05
482.829	443.65
483.193	395.14
483.556	425.78
483.919	438.54
484.282	453.86
484.645	441.1
485.009	456.42
485.372	384.92
485.735	413.01
486.098	435.99
486.46	453.86
486.823	425.78
487.186	420.67
487.549	390.03
487.912	379.81
488.274	410.46
488.637	405.35
488.999	453.86
489.362	448.76
489.724	407.9
490.087	402.8
490.449	430.88
490.811	374.71
491.174	407.9
491.536	397.69
491.898	420.67
492.26	464.08
492.622	369.6
492.984	438.54
493.346	413.01
493.708	428.33
494.07	405.35
494.432	433.44
494.794	433.44
495.155	390.03
495.517	356.83
495.879	420.67
496.24	405.35
496.602	420.67
496.963	346.62
497.325	361.94
497.686	428.33
498.048	374.71
498.409	382.37
498.77	418.12
499.131	410.46
499.492	433.44
499.854	400.24
500.215	328.75
500.576	392.58
500.937	433.44
501.298	456.42
501.658	392.58
502.019	438.54
502.38	395.14
502.741	359.39
503.101	400.24
503.462	410.46
503.823	418.12
504.183	461.52
504.543	443.65
504.904	413.01
505.264	453.86
505.625	392.58
505.985	377.26
506.345	333.85
506.705	344.07
507.065	328.75
507.426	374.71
507.786	382.37
508.146	446.2
508.505	384.92
508.865	458.97
509.225	410.46
509.585	425.78
509.945	461.52
510.304	435.99
510.664	448.76
511.024	372.15
511.383	461.52
511.743	382.37
512.102	435.99
512.462	387.48
512.821	420.67
513.18	336.41
513.539	395.14
513.899	328.75
514.258	382.37
514.617	413.01
514.976	453.86
515.335	374.71
515.694	413.01
516.053	471.74
516.412	384.92
516.771	420.67
517.129	430.88
517.488	456.42
517.847	392.58
518.205	390.03
518.564	295.55
518.922	377.26
519.281	451.31
519.639	349.17
519.998	392.58
520.356	372.15
520.714	438.54
521.073	418.12
521.431	407.9
521.789	425.78
522.147	410.46
522.505	392.58
522.863	438.54
523.221	453.86
523.579	374.71
523.937	377.26
524.295	405.35
524.652	448.76
525.01	384.92
525.368	384.92
525.725	448.76
526.083	415.56
526.44	367.05
526.798	369.6
527.155	415.56
527.513	402.8
527.87	390.03
528.227	448.76
528.584	382.37
528.942	359.39
529.299	451.31
529.656	367.05
530.013	341.51
530.37	359.39
530.727	407.9
531.083	428.33
531.44	443.65
531.797	395.14
532.154	464.08
532.511	387.48
532.867	367.05
533.224	374.71
533.58	415.56
533.937	354.28
534.293	356.83
534.65	372.15
535.006	405.35
535.362	400.24
535.718	384.92
536.075	367.05
536.431	364.49
536.787	333.85
537.143	413.01
537.499	390.03
537.855	356.83
538.211	354.28
538.567	374.71
538.923	420.67
539.278	346.62
539.634	407.9
539.99	359.39
540.345	410.46
540.701	458.97
541.056	423.22
541.412	448.76
541.767	387.48
542.123	377.26
542.478	351.73
542.833	384.92
543.188	351.73
543.544	382.37
543.899	407.9
544.254	420.67
544.609	374.71
544.964	359.39
545.319	410.46
545.674	407.9
546.029	433.44
546.383	420.67
546.738	372.15
547.093	367.05
547.447	418.12
547.802	476.84
548.157	443.65
548.511	415.56
548.866	397.69
549.22	382.37
549.574	405.35
549.929	379.81
550.283	379.81
550.637	387.48
550.991	471.74
551.345	364.49
551.699	418.12
552.053	397.69
552.407	351.73
552.761	433.44
553.115	395.14
553.469	428.33
553.823	438.54
554.176	415.56
554.53	420.67
554.884	379.81
555.237	668.35
555.591	433.44
555.944	492.16
556.298	448.76
556.651	407.9
557.005	384.92
557.358	415.56
557.711	331.3
558.064	397.69
558.417	367.05
558.771	435.99
559.124	410.46
559.477	395.14
559.83	443.65
560.182	423.22
560.535	451.31
560.888	438.54
561.241	430.88
561.594	400.24
561.946	446.2
562.299	382.37
562.651	372.15
563.004	423.22
563.356	418.12
563.709	384.92
564.061	369.6
564.413	349.17
564.766	369.6
565.118	397.69
565.47	441.1
565.822	438.54
566.174	377.26
566.526	382.37
566.878	372.15
567.23	418.12
567.582	361.94
567.934	458.97
568.286	420.67
568.638	430.88
568.989	479.4
569.341	435.99
569.693	387.48
570.044	377.26
570.396	346.62
570.747	361.94
571.098	369.6
571.45	392.58
571.801	367.05
572.152	423.22
572.504	318.53
572.855	361.94
573.206	415.56
573.557	423.22
573.908	395.14
574.259	418.12
574.61	410.46
574.961	374.71
575.311	395.14
575.662	379.81
576.013	392.58
576.364	458.97
576.714	446.2
577.065	430.88
577.415	443.65
577.766	354.28
578.116	418.12
578.467	430.88
578.817	423.22
579.167	441.1
579.518	441.1
579.868	367.05
580.218	448.76
580.568	410.46
580.918	382.37
581.268	387.48
581.618	351.73
581.968	438.54
582.318	387.48
582.668	405.35
583.017	407.9
583.367	425.78
583.717	372.15
584.066	377.26
584.416	379.81
584.765	418.12
585.115	400.24
585.464	374.71
585.814	402.8
586.163	356.83
586.512	341.51
586.862	361.94
587.211	415.56
587.56	379.81
587.909	433.44
588.258	384.92
588.607	359.39
588.956	384.92
589.305	407.9
589.654	512.59
590.002	395.14
590.351	423.22
590.7	425.78
591.048	356.83
591.397	413.01
591.746	395.14
592.094	369.6
592.443	420.67
592.791	372.15
593.139	379.81
593.488	430.88
593.836	443.65
594.184	413.01
594.532	405.35
594.88	438.54
595.228	438.54
595.576	415.56
595.924	425.78
596.272	425.78
596.62	372.15
596.968	356.83
597.316	384.92
597.664	405.35
598.011	359.39
598.359	441.1
598.706	367.05
599.054	395.14
599.402	405.35
599.749	361.94
600.096	305.77
600.444	423.22
600.791	446.2
601.138	354.28
601.485	395.14
601.833	367.05
602.18	430.88
602.527	390.03
602.874	420.67
603.221	374.71
603.568	356.83
603.914	336.41
604.261	423.22
604.608	448.76
604.955	456.42
605.301	361.94
605.648	402.8
605.995	400.24
606.341	407.9
606.688	420.67
607.034	349.17
607.38	369.6
607.727	377.26
608.073	423.22
608.419	453.86
608.765	428.33
609.112	433.44
609.458	387.48
609.804	451.31
610.15	420.67
610.496	382.37
610.842	471.74
611.187	423.22
611.533	423.22
611.879	361.94
612.225	364.49
612.57	367.05
612.916	395.14
613.261	441.1
613.607	379.81
613.952	400.24
614.298	387.48
614.643	374.71
614.989	392.58
615.334	402.8
615.679	367.05
616.024	407.9
616.369	425.78
616.714	323.64
617.059	390.03
617.404	372.15
617.749	315.98
618.094	420.67
618.439	425.78
618.784	356.83
619.129	435.99
619.473	387.48
619.818	433.44
620.163	430.88
620.507	433.44
620.852	410.46
621.196	433.44
621.54	379.81
621.885	321.09
622.229	390.03
622.573	448.76
622.918	369.6
623.262	407.9
623.606	481.95
623.95	392.58
624.294	397.69
624.638	372.15
624.982	392.58
625.326	387.48
625.67	435.99
626.013	443.65
626.357	405.35
626.701	379.81
627.044	428.33
627.388	359.39
627.731	390.03
628.075	369.6
628.418	469.18
628.762	356.83
629.105	438.54
629.448	428.33
629.792	407.9
630.135	382.37
630.478	428.33
630.821	382.37
631.164	392.58
631.507	448.76
631.85	384.92
632.193	387.48
632.536	415.56
632.879	456.42
633.221	402.8
633.564	395.14
633.907	407.9
634.249	359.39
634.592	410.46
634.935	338.96
635.277	344.07
635.619	413.01
635.962	372.15
636.304	423.22
636.646	413.01
636.989	354.28
637.331	333.85
637.673	430.88
638.015	374.71
638.357	420.67
638.699	384.92
639.041	384.92
639.383	341.51
639.725	369.6
640.067	407.9
640.408	446.2
640.75	400.24
641.092	374.71
641.433	397.69
641.775	418.12
642.116	430.88
642.458	402.8
642.799	359.39
643.141	438.54
643.482	448.76
643.823	402.8
644.164	333.85
644.506	464.08
644.847	423.22
645.188	346.62
645.529	374.71
645.87	379.81
646.211	441.1
646.552	384.92
646.893	397.69
647.233	430.88
647.574	428.33
647.915	464.08
648.255	405.35
648.596	387.48
648.937	397.69
649.277	341.51
649.618	349.17
649.958	369.6
650.298	351.73
650.639	351.73
650.979	369.6
651.319	397.69
651.659	356.83
651.999	400.24
652.339	374.71
652.679	397.69
653.019	402.8
653.359	356.83
653.699	423.22
654.039	354.28
654.379	392.58
654.719	425.78
655.058	356.83
655.398	420.67
655.737	441.1
656.077	364.49
656.416	308.32
656.756	464.08
657.095	453.86
657.435	413.01
657.774	364.49
658.113	326.19
658.452	374.71
658.792	420.67
659.131	308.32
659.47	344.07
659.809	407.9
660.148	435.99
660.487	305.77
660.826	346.62
661.164	390.03
661.503	392.58
661.842	410.46
662.181	433.44
662.519	407.9
662.858	448.76
663.196	410.46
663.535	346.62
663.873	395.14
664.212	377.26
664.55	423.22
664.888	367.05
665.226	423.22
665.565	400.24
665.903	607.07
666.241	430.88
666.579	392.58
666.917	415.56
667.255	402.8
667.593	369.6
667.931	438.54
668.268	364.49
668.606	430.88
668.944	379.81
669.282	361.94
669.619	285.34
669.957	379.81
670.294	372.15
670.632	448.76
670.969	466.63
671.307	356.83
671.644	443.65
671.981	461.52
672.318	407.9
672.656	359.39
672.993	387.48
673.33	410.46
673.667	367.05
674.004	397.69
674.341	413.01
674.678	387.48
675.015	387.48
675.351	448.76
675.688	341.51
676.025	323.64
676.362	443.65
676.698	402.8
677.035	372.15
677.371	374.71
677.708	395.14
678.044	395.14
678.38	390.03
678.717	420.67
679.053	359.39
679.389	410.46
679.725	395.14
680.062	326.19
680.398	392.58
680.734	464.08
681.07	372.15
681.406	405.35
681.742	346.62
682.077	395.14
682.413	395.14
682.749	430.88
683.085	379.81
683.42	387.48
683.756	420.67
684.091	405.35
684.427	361.94
684.762	402.8
685.098	372.15
685.433	372.15
685.768	359.39
686.104	400.24
686.439	430.88
686.774	354.28
687.109	410.46
687.444	341.51
687.779	326.19
688.114	290.45
688.449	369.6
688.784	382.37
689.119	410.46
689.454	372.15
689.789	364.49
690.123	392.58
690.458	379.81
690.792	315.98
691.127	384.92
691.461	461.52
691.796	410.46
692.13	397.69
692.465	443.65
692.799	333.85
693.133	346.62
693.467	387.48
693.802	367.05
694.136	390.03
694.47	446.2
694.804	407.9
695.138	458.97
695.472	458.97
695.806	346.62
696.139	390.03
696.473	387.48
696.807	397.69
697.141	351.73
697.474	387.48
697.808	397.69
698.141	397.69
698.475	423.22
698.808	435.99
699.142	443.65
699.475	397.69
699.808	448.76
700.142	420.67
700.475	364.49
700.808	369.6
701.141	336.41
701.474	433.44
701.807	356.83
702.14	456.42
702.473	453.86
702.806	387.48
703.139	487.06
703.472	372.15
703.804	374.71
704.137	354.28
704.47	407.9
704.802	374.71
705.135	374.71
705.467	359.39
705.8	379.81
706.132	356.83
706.464	441.1
706.797	390.03
707.129	377.26
707.461	367.05
707.793	418.12
708.125	402.8
708.457	453.86
708.789	392.58
709.121	413.01
709.453	377.26
709.785	415.56
710.117	384.92
710.449	384.92
710.781	395.14
711.112	428.33
711.444	374.71
711.775	379.81
712.107	405.35
712.438	354.28
712.77	423.22
713.101	369.6
713.433	407.9
713.764	425.78
714.095	425.78
714.426	395.14
714.757	392.58
715.089	372.15
715.42	390.03
715.751	349.17
716.082	390.03
716.412	456.42
716.743	379.81
717.074	402.8
717.405	372.15
717.736	377.26
718.066	415.56
718.397	458.97
718.727	425.78
719.058	349.17
719.388	336.41
719.719	384.92
720.049	418.12
720.38	420.67
720.71	346.62
721.04	331.3
721.37	420.67
721.7	407.9
722.031	331.3
722.361	351.73
722.691	308.32
723.021	428.33
723.35	315.98
723.68	390.03
724.01	425.78
724.34	499.82
724.67	413.01
724.999	402.8
725.329	443.65
725.658	379.81
725.988	397.69
726.317	461.52
726.647	323.64
726.976	374.71
727.306	392.58
727.635	402.8
727.964	356.83
728.293	338.96
728.622	354.28
728.952	395.14
729.281	374.71
729.61	387.48
729.939	402.8
730.267	379.81
730.596	338.96
730.925	415.56
731.254	377.26
731.583	344.07
731.911	387.48
732.24	402.8
732.568	410.46
732.897	397.69
733.225	349.17
733.554	418.12
733.882	369.6
734.21	428.33
734.539	387.48
734.867	361.94
735.195	367.05
735.523	428.33
735.851	382.37
736.179	367.05
736.507	410.46
736.835	397.69
737.163	433.44
737.491	390.03
737.819	423.22
738.147	392.58
738.474	392.58
738.802	359.39
739.13	377.26
739.457	410.46
739.785	379.81
740.112	364.49
740.44	367.05
740.767	382.37
741.094	413.01
741.422	372.15
741.749	384.92
742.076	418.12
742.403	405.35
742.73	415.56
743.057	374.71
743.384	435.99
743.711	413.01
744.038	359.39
744.365	420.67
744.692	384.92
745.018	369.6
745.345	384.92
745.672	428.33
745.998	387.48
746.325	379.81
746.651	356.83
746.978	333.85
747.304	407.9
747.631	372.15
747.957	407.9
748.283	331.3
748.61	379.81
748.936	392.58
749.262	461.52
749.588	402.8
749.914	374.71
750.24	428.33
750.566	344.07
750.892	433.44
751.218	410.46
751.543	379.81
751.869	392.58
752.195	333.85
752.521	400.24
752.846	407.9
753.172	453.86
753.497	390.03
753.823	395.14
754.148	377.26
754.473	382.37
754.799	410.46
755.124	346.62
755.449	420.67
755.774	418.12
756.1	369.6
756.425	418.12
756.75	407.9
757.075	453.86
757.4	474.29
757.724	382.37
758.049	392.58
758.374	341.51
758.699	420.67
759.024	415.56
759.348	420.67
759.673	405.35
759.997	359.39
760.322	464.08
760.646	415.56
760.971	387.48
761.295	400.24
761.619	438.54
761.944	410.46
762.268	487.06
762.592	387.48
762.916	474.29
763.24	515.14
763.564	474.29
763.888	527.91
764.212	591.75
764.536	553.44
764.86	553.44
765.184	650.47
765.508	619.83
765.831	744.95
766.155	984.97
766.478	785.8
766.802	747.5
767.126	716.86
767.449	939
767.772	1007.95
768.096	995.18
768.419	1010.5
768.742	1081.99
769.066	1107.53
769.389	1156.04
769.712	1171.36
770.035	1235.2
770.358	1301.58
770.681	1380.74
771.004	1362.87
771.327	1370.53
771.65	1521.17
771.972	1503.3
772.295	1613.1
772.618	1605.44
772.941	1648.84
773.263	1628.42
773.586	1715.23
773.908	1914.4
774.231	1950.14
774.553	2039.51
774.875	2269.31
775.198	2266.76
775.52	2111.01
775.842	2062.49
776.164	2100.79
776.487	2098.24
776.809	2225.91
777.131	2310.17
777.453	2225.91
777.775	2197.82
778.096	2463.37
778.418	2491.46
778.74	2333.15
779.062	2358.68
779.384	2557.85
779.705	2894.89
780.027	3134.91
780.348	3157.89
780.67	3007.24
780.991	3183.42
781.313	3484.72
781.634	3666.01
781.955	3390.25
782.277	3316.2
782.598	3254.92
782.919	3272.79
783.24	3380.03
783.561	3466.85
783.882	3448.98
784.203	3443.87
784.524	3372.37
784.845	3323.86
785.166	2958.73
785.487	3142.57
785.807	3083.84
786.128	2925.53
786.449	2984.26
786.769	2979.15
787.09	3265.13
787.41	3369.82
787.731	3806.45
788.051	3890.71
788.372	3949.44
788.692	4383.51
789.012	4411.6
789.332	4363.08
789.653	4564.8
789.973	4843.12
790.293	4564.8
790.613	3895.82
790.933	3824.32
791.253	3711.97
791.573	3390.25
791.893	3272.79
792.212	3198.74
792.532	3168.1
792.852	2984.26
793.171	2823.4
793.491	2677.86
793.811	2808.08
794.13	2884.68
794.45	2772.33
794.769	2815.74
795.088	3012.35
795.408	3155.34
795.727	3290.67
796.046	3183.42
796.365	3076.18
796.684	2833.61
797.004	2700.84
797.323	2864.25
797.642	3260.03
797.96	3288.11
798.279	3198.74
798.598	3065.97
798.917	2999.58
799.236	2838.72
799.554	2578.27
799.873	2562.95
800.192	2501.67
800.51	2580.83
800.829	2506.78
801.147	2458.26
801.466	2348.47
801.784	2307.62
802.102	2248.89
802.421	2340.81
802.739	2524.65
803.057	2471.03
803.375	2159.52
803.693	2123.77
804.011	2343.36
804.329	2491.46
804.647	2297.4
804.965	2259.1
805.283	2185.05
805.601	2162.07
805.918	2082.92
806.236	1945.04
806.554	2011.42
806.871	2021.64
807.189	2070.15
807.507	2118.67
807.824	2095.69
808.141	1837.79
808.459	1664.16
808.776	1513.51
809.093	1380.74
809.411	1260.73
809.728	1179.02
810.045	1270.94
810.362	1265.84
810.679	1322.01
810.996	1319.46
811.313	1288.82
811.63	1436.91
811.947	1327.12
812.264	1304.14
812.58	1255.62
812.897	1230.09
813.214	1350.1
813.53	1306.69
813.847	1375.63
814.163	1393.51
814.48	1196.9
814.796	1291.37
815.113	1286.26
815.429	1196.9
815.745	1110.08
816.061	1148.38
816.378	1156.04
816.694	1061.57
817.01	1092.21
817.326	1053.91
817.642	997.73
817.958	969.65
818.274	893.04
818.59	821.55
818.905	821.55
819.221	870.06
819.537	939
819.852	921.13
820.168	839.42
820.484	864.96
820.799	913.47
821.115	908.36
821.43	821.55
821.745	760.27
822.061	778.14
822.376	783.25
822.691	862.4
823.006	829.21
823.322	681.11
823.637	693.88
823.952	696.43
824.267	681.11
824.582	724.52
824.897	691.33
825.211	612.17
825.526	586.64
825.841	563.66
826.156	581.53
826.47	573.87
826.785	612.17
827.1	640.26
827.414	612.17
827.729	591.75
828.043	576.43
828.357	607.07
828.672	548.34
828.986	586.64
829.3	607.07
829.614	558.55
829.929	599.41
830.243	599.41
830.557	604.51
830.871	527.91
831.185	538.12
831.499	527.91
831.812	563.66
832.126	571.32
832.44	471.74
832.754	512.59
833.067	507.48
833.381	479.4
833.695	556
834.008	510.04
834.322	413.01
834.635	466.63
834.948	423.22
835.262	430.88
835.575	438.54
835.888	435.99
836.201	497.27
836.515	425.78
836.828	361.94
837.141	433.44
837.454	451.31
837.767	456.42
838.08	415.56
838.392	400.24
838.705	502.38
839.018	520.25
839.331	400.24
839.643	415.56
839.956	418.12
840.269	413.01
840.581	346.62
840.894	326.19
841.206	390.03
841.519	576.43
841.831	481.95
842.143	428.33
842.455	397.69
842.768	341.51
843.08	400.24
843.392	428.33
843.704	484.5
844.016	433.44
844.328	369.6
844.64	372.15
844.952	372.15
845.263	415.56
845.575	441.1
845.887	428.33
846.199	395.14
846.51	420.67
846.822	354.28
847.133	428.33
847.445	367.05
847.756	415.56
848.068	438.54
848.379	390.03
848.69	341.51
849.002	321.09
849.313	420.67
849.624	356.83
849.935	382.37
850.246	405.35
850.557	354.28
850.868	458.97
851.179	392.58
851.49	405.35
851.801	364.49
852.112	379.81
852.422	356.83
852.733	328.75
853.044	354.28
853.354	384.92
853.665	315.98
853.975	418.12
854.286	413.01
854.596	405.35
854.906	344.07
855.217	351.73
855.527	413.01
855.837	430.88
856.147	395.14
856.458	359.39
856.768	415.56
857.078	318.53
857.388	397.69
857.698	369.6
858.007	382.37
858.317	395.14
858.627	377.26
858.937	407.9
859.246	397.69
859.556	441.1
859.866	410.46
860.175	397.69
860.485	372.15
860.794	387.48
861.104	402.8
861.413	377.26
861.722	387.48
862.032	364.49
862.341	402.8
862.65	359.39
862.959	372.15
863.268	346.62
863.577	318.53
863.886	338.96
864.195	413.01
864.504	369.6
864.813	418.12
865.122	387.48
865.43	331.3
865.739	369.6
866.048	367.05
866.356	453.86
866.665	402.8
866.973	415.56
867.282	387.48
867.59	402.8
867.899	349.17
868.207	379.81
868.515	405.35
868.823	413.01
869.132	369.6
869.44	423.22
869.748	321.09
870.056	359.39
870.364	374.71
870.672	387.48
870.98	410.46
871.288	395.14
871.595	433.44
871.903	420.67
872.211	387.48
872.518	382.37
872.826	415.56
873.134	354.28
873.441	418.12
873.749	428.33
874.056	369.6
874.363	293
874.671	400.24
874.978	361.94
875.285	361.94
875.592	377.26
875.9	425.78
876.207	382.37
876.514	446.2
876.821	374.71
877.128	361.94
877.435	390.03
877.741	415.56
878.048	435.99
878.355	400.24
878.662	333.85
878.968	377.26
879.275	374.71
879.582	379.81
879.888	428.33
880.195	390.03
880.501	407.9
880.807	379.81
881.114	356.83
881.42	392.58
881.726	367.05
882.032	453.86
882.339	402.8
882.645	351.73
882.951	354.28
883.257	418.12
883.563	374.71
883.869	364.49
884.174	390.03
884.48	364.49
884.786	372.15
885.092	415.56
885.397	415.56
885.703	387.48
886.009	349.17
886.314	390.03
886.62	344.07
886.925	410.46
887.231	402.8
887.536	392.58
887.841	443.65
888.146	451.31
888.452	443.65
888.757	328.75
889.062	384.92
889.367	349.17
889.672	361.94
889.977	338.96
890.282	433.44
890.587	344.07
890.892	392.58
891.196	395.14
891.501	382.37
891.806	369.6
892.11	364.49
892.415	359.39
892.72	359.39
893.024	400.24
893.328	458.97
893.633	344.07
893.937	387.48
894.242	402.8
894.546	295.55
894.85	346.62
895.154	364.49
895.458	356.83
895.762	349.17
896.066	377.26
896.37	397.69
896.674	410.46
896.978	336.41
897.282	321.09
897.586	356.83
897.89	413.01
898.193	392.58
898.497	428.33
898.801	405.35
899.104	397.69
899.408	395.14
899.711	441.1
900.014	402.8
900.318	390.03
900.621	402.8
900.924	390.03
901.228	387.48
901.531	354.28
901.834	331.3
902.137	364.49
902.44	453.86
902.743	367.05
903.046	374.71
903.349	374.71
903.652	374.71
903.955	379.81
904.257	382.37
904.56	328.75
904.863	344.07
905.165	384.92
905.468	351.73
905.77	410.46
906.073	367.05
906.375	379.81
906.678	379.81
906.98	349.17
907.282	367.05
907.584	336.41
907.887	413.01
908.189	413.01
908.491	407.9
908.793	336.41
909.095	361.94
909.397	359.39
909.699	405.35
910.001	402.8
910.302	397.69
910.604	390.03
910.906	402.8
911.208	379.81
911.509	328.75
911.811	443.65
912.112	377.26
912.414	338.96
912.715	397.69
913.017	367.05
913.318	384.92
913.619	372.15
913.92	372.15
914.222	494.72
914.523	387.48
914.824	420.67
915.125	395.14
915.426	338.96
915.727	374.71
916.028	392.58
916.329	336.41
916.63	456.42
916.93	392.58
917.231	338.96
917.532	374.71
917.832	351.73
918.133	364.49
918.434	323.64
918.734	300.66
919.034	384.92
919.335	400.24
919.635	425.78
919.935	400.24
920.236	420.67
920.536	441.1
920.836	351.73
921.136	369.6
921.436	499.82
921.736	413.01
922.036	372.15
922.336	369.6
922.636	341.51
922.936	413.01
923.236	395.14
923.535	384.92
923.835	392.58
924.135	425.78
924.434	415.56
924.734	349.17
925.033	313.43
925.333	344.07
925.632	364.49
925.932	369.6
926.231	433.44
926.53	390.03
926.83	415.56
927.129	400.24
927.428	407.9
927.727	405.35
928.026	300.66
928.325	303.21
928.624	367.05
928.923	331.3
929.222	384.92
929.52	374.71
929.819	369.6
930.118	402.8
930.417	446.2
930.715	456.42
931.014	364.49
931.312	326.19
931.611	344.07
931.909	374.71
932.207	359.39
932.506	349.17
932.804	382.37
933.102	400.24
933.401	390.03
933.699	387.48
933.997	300.66
934.295	303.21
934.593	367.05
934.891	387.48
935.189	367.05
935.487	384.92
935.784	374.71
936.082	377.26
936.38	346.62
936.677	413.01
936.975	282.79
937.273	277.68
937.57	382.37
937.868	397.69
938.165	364.49
938.463	374.71
938.76	372.15
939.057	369.6
939.354	402.8
939.652	364.49
939.949	415.56
940.246	441.1
940.543	346.62
940.84	359.39
941.137	456.42
941.434	400.24
941.731	336.41
942.028	326.19
942.324	377.26
942.621	344.07
942.918	458.97
943.214	433.44
943.511	346.62
943.807	392.58
944.104	323.64
944.4	367.05
944.697	338.96
944.993	443.65
945.29	441.1
945.586	379.81
945.882	351.73
946.178	341.51
946.474	441.1
946.77	407.9
947.066	448.76
947.362	349.17
947.658	369.6
947.954	361.94
948.25	413.01
948.546	346.62
948.842	382.37
949.137	418.12
949.433	384.92
949.729	420.67
950.024	377.26
950.32	369.6
950.615	361.94
950.91	364.49
951.206	387.48
951.501	351.73
951.796	402.8
952.092	384.92
952.387	384.92
952.682	387.48
952.977	405.35
953.272	420.67
953.567	390.03
953.862	395.14
954.157	280.23
954.452	359.39
954.747	336.41
955.041	402.8
955.336	374.71
955.631	359.39
955.925	397.69
956.22	387.48
956.514	405.35
956.809	441.1
957.103	367.05
957.398	356.83
957.692	392.58
957.986	395.14
958.281	321.09
958.575	346.62
958.869	372.15
959.163	379.81
959.457	344.07
959.751	410.46
960.045	310.87
960.339	446.2
960.633	356.83
960.927	323.64
961.221	397.69
961.514	395.14
961.808	390.03
962.102	280.23
962.395	390.03
962.689	397.69
962.982	369.6
963.276	382.37
963.569	384.92
963.862	367.05
964.156	377.26
964.449	418.12
964.742	420.67
965.035	420.67
965.328	382.37
965.622	448.76
965.915	397.69
966.208	397.69
966.5	418.12
966.793	405.35
967.086	423.22
967.379	392.58
967.672	377.26
967.964	336.41
968.257	390.03
968.55	390.03
968.842	349.17
969.135	351.73
969.427	305.77
969.72	367.05
970.012	377.26
970.304	433.44
970.597	410.46
970.889	397.69
971.181	402.8
971.473	413.01
971.765	308.32
972.057	321.09
972.349	310.87
972.641	430.88
972.933	395.14
973.225	407.9
973.517	400.24
973.809	390.03
974.1	356.83
974.392	349.17
974.684	387.48
974.975	382.37
975.267	372.15
975.558	387.48
975.85	392.58
976.141	372.15
976.432	338.96
976.724	379.81
977.015	392.58
977.306	395.14
977.597	425.78
977.888	428.33
978.179	382.37
978.47	384.92
978.761	354.28
979.052	344.07
979.343	372.15
979.634	400.24
979.925	364.49
980.215	390.03
980.506	344.07
980.797	415.56
981.087	484.5
981.378	390.03
981.668	397.69
981.959	395.14
982.249	456.42
982.54	415.56
982.83	433.44
983.12	438.54
983.41	344.07
983.701	318.53
983.991	338.96
984.281	369.6
984.571	351.73
984.861	323.64
985.151	356.83
985.441	341.51
985.73	392.58
986.02	400.24
986.31	384.92
986.6	448.76
986.889	349.17
987.179	395.14
987.469	387.48
987.758	410.46
988.048	326.19
988.337	341.51
988.626	328.75
988.916	418.12
989.205	402.8
989.494	448.76
989.783	384.92
990.073	336.41
990.362	351.73
990.651	379.81
990.94	438.54
991.229	359.39
991.518	361.94
991.806	384.92
992.095	392.58
992.384	331.3
992.673	433.44
992.961	390.03
993.25	374.71
993.539	395.14
993.827	374.71
994.116	374.71
994.404	407.9
994.692	349.17
994.981	384.92
995.269	395.14
995.557	425.78
995.846	341.51
996.134	336.41
996.422	400.24
996.71	369.6
996.998	400.24
997.286	446.2
997.574	367.05
997.862	387.48
998.15	367.05
998.437	387.48
998.725	323.64
999.013	372.15
999.3	346.62
999.588	310.87
999.876	382.37
1000.163	298.11
1000.45	313.43
1000.738	407.9
1001.025	379.81
1001.313	374.71
1001.6	377.26
1001.887	400.24
1002.174	382.37
1002.461	407.9
1002.748	359.39
1003.036	367.05
1003.322	351.73
1003.609	441.1
1003.896	423.22
1004.183	382.37
1004.47	397.69
1004.757	425.78
1005.043	387.48
1005.33	410.46
1005.617	395.14
1005.903	392.58
1006.19	395.14
1006.476	351.73
1006.763	341.51
1007.049	298.11
1007.335	456.42
1007.622	364.49
1007.908	405.35
1008.194	344.07
1008.48	382.37
1008.766	323.64
1009.053	425.78
1009.339	420.67
1009.625	430.88
1009.91	364.49
1010.196	328.75
1010.482	374.71
1010.768	392.58
1011.054	361.94
1011.339	400.24
1011.625	361.94
1011.911	344.07
1012.196	420.67
1012.482	390.03
1012.767	402.8
1013.052	354.28
1013.338	379.81
1013.623	413.01
1013.908	341.51
1014.194	390.03
1014.479	405.35
1014.764	433.44
1015.049	415.56
1015.334	364.49
1015.619	407.9
1015.904	400.24
1016.189	435.99
1016.474	384.92
1016.758	400.24
1017.043	413.01
1017.328	397.69
1017.613	379.81
1017.897	354.28
1018.182	402.8
1018.466	333.85
1018.751	407.9
1019.035	351.73
1019.32	390.03
1019.604	405.35
1019.888	384.92
1020.172	384.92
1020.457	384.92
