Data from 2025-12-03_xpw_interference_micrometer_634_reference_FLMS141361__141__391.txt Node

Date: Wed Dec 03 15:51:26 MST 2025
User: james
Spectrometer: FLMS14136
Trigger mode: 0
Integration Time (sec): 1.000000E-1
Scans to average: 1
Electric dark correction enabled: true
Nonlinearity correction enabled: false
Boxcar width: 0
XAxis mode: Wavelengths
Number of Pixels in Spectrum: 2048
>>>>>Begin Spectral Data<<<<<
339.315	-23.46
339.697	-23.46
340.079	-23.46
340.461	-140.91
340.843	-112.83
341.225	-123.04
341.607	-117.93
341.989	-15.8
342.371	-74.53
342.752	-36.23
343.134	-61.76
343.516	22.5
343.897	-38.78
344.279	-15.8
344.661	17.39
345.042	-10.69
345.423	-13.25
345.805	58.25
346.186	78.68
346.567	157.83
346.949	173.15
347.33	208.9
347.711	132.3
348.092	208.9
348.473	303.37
348.854	208.9
349.235	303.37
349.616	326.35
349.997	354.44
350.378	321.25
350.758	272.73
351.139	356.99
351.52	341.67
351.9	372.31
352.281	415.72
352.661	300.82
353.042	321.25
353.422	359.55
353.803	420.83
354.183	438.7
354.563	344.23
354.943	390.19
355.324	385.08
355.704	369.76
356.084	372.31
356.464	392.74
356.844	390.19
357.224	341.67
357.603	359.55
357.983	425.94
358.363	482.11
358.743	390.19
359.122	395.29
359.502	364.65
359.882	356.99
360.261	410.62
360.641	354.44
361.02	265.07
361.399	346.78
361.779	341.67
362.158	374.87
362.537	372.31
362.916	321.25
363.296	397.85
363.675	415.72
364.054	433.6
364.433	405.51
364.812	349.33
365.19	356.99
365.569	336.57
365.948	374.87
366.327	331.46
366.705	334.01
367.084	356.99
367.463	367.21
367.841	402.95
368.22	339.12
368.598	382.53
368.977	377.42
369.355	387.63
369.733	359.55
370.111	308.48
370.49	323.8
370.868	331.46
371.246	316.14
371.624	344.23
372.002	328.91
372.38	408.06
372.758	344.23
373.136	392.74
373.513	311.03
373.891	374.87
374.269	321.25
374.646	311.03
375.024	354.44
375.402	364.65
375.779	382.53
376.157	349.33
376.534	308.48
376.911	331.46
377.289	382.53
377.666	400.4
378.043	344.23
378.42	400.4
378.797	385.08
379.175	364.65
379.552	349.33
379.929	387.63
380.305	354.44
380.682	428.49
381.059	356.99
381.436	395.29
381.813	402.95
382.189	387.63
382.566	285.5
382.943	326.35
383.319	428.49
383.696	359.55
384.072	397.85
384.448	402.95
384.825	341.67
385.201	367.21
385.577	425.94
385.953	336.57
386.329	339.12
386.706	425.94
387.082	362.1
387.458	367.21
387.834	356.99
388.209	344.23
388.585	336.57
388.961	461.68
389.337	367.21
389.713	377.42
390.088	443.81
390.464	336.57
390.839	405.51
391.215	290.61
391.59	367.21
391.966	379.97
392.341	356.99
392.716	372.31
393.092	344.23
393.467	356.99
393.842	390.19
394.217	372.31
394.592	339.12
394.967	367.21
395.342	351.89
395.717	339.12
396.092	395.29
396.467	420.83
396.841	408.06
397.216	390.19
397.591	364.65
397.965	316.14
398.34	425.94
398.714	336.57
399.089	364.65
399.463	367.21
399.838	418.28
400.212	372.31
400.586	372.31
400.961	341.67
401.335	351.89
401.709	397.85
402.083	334.01
402.457	379.97
402.831	379.97
403.205	390.19
403.579	377.42
403.953	397.85
404.326	323.8
404.7	395.29
405.074	420.83
405.447	392.74
405.821	402.95
406.195	397.85
406.568	433.6
406.942	477
407.315	395.29
407.688	415.72
408.062	408.06
408.435	410.62
408.808	402.95
409.181	341.67
409.554	397.85
409.927	311.03
410.3	431.04
410.673	354.44
411.046	400.4
411.419	362.1
411.792	431.04
412.165	369.76
412.537	362.1
412.91	374.87
413.283	400.4
413.655	461.68
414.028	359.55
414.4	390.19
414.773	367.21
415.145	379.97
415.517	354.44
415.889	359.55
416.262	334.01
416.634	372.31
417.006	349.33
417.378	372.31
417.75	349.33
418.122	326.35
418.494	385.08
418.866	415.72
419.238	354.44
419.609	385.08
419.981	321.25
420.353	326.35
420.725	377.42
421.096	372.31
421.468	387.63
421.839	456.58
422.211	402.95
422.582	356.99
422.953	441.26
423.325	448.92
423.696	402.95
424.067	471.9
424.438	413.17
424.809	410.62
425.18	346.78
425.551	400.4
425.922	415.72
426.293	431.04
426.664	400.4
427.035	474.45
427.406	415.72
427.776	418.28
428.147	379.97
428.518	313.59
428.888	344.23
429.259	428.49
429.629	418.28
429.999	425.94
430.37	418.28
430.74	418.28
431.11	433.6
431.481	311.03
431.851	311.03
432.221	418.28
432.591	392.74
432.961	425.94
433.331	431.04
433.701	364.65
434.071	372.31
434.441	420.83
434.81	408.06
435.18	420.83
435.55	392.74
435.919	390.19
436.289	415.72
436.658	326.35
437.028	364.65
437.397	359.55
437.767	374.87
438.136	377.42
438.505	397.85
438.875	387.63
439.244	471.9
439.613	362.1
439.982	341.67
440.351	372.31
440.72	418.28
441.089	431.04
441.458	420.83
441.827	400.4
442.196	461.68
442.564	448.92
442.933	344.23
443.302	415.72
443.67	436.15
444.039	420.83
444.407	443.81
444.776	443.81
445.144	433.6
445.513	443.81
445.881	436.15
446.249	344.23
446.617	359.55
446.986	385.08
447.354	390.19
447.722	413.17
448.09	402.95
448.458	354.44
448.826	484.66
449.194	415.72
449.561	374.87
449.929	420.83
450.297	346.78
450.665	431.04
451.032	474.45
451.4	413.17
451.767	415.72
452.135	392.74
452.502	461.68
452.87	461.68
453.237	354.44
453.604	448.92
453.971	390.19
454.339	410.62
454.706	395.29
455.073	397.85
455.44	433.6
455.807	385.08
456.174	379.97
456.541	443.81
456.908	418.28
457.274	410.62
457.641	387.63
458.008	456.58
458.374	446.36
458.741	402.95
459.108	385.08
459.474	443.81
459.841	392.74
460.207	397.85
460.573	395.29
460.94	392.74
461.306	379.97
461.672	390.19
462.038	520.41
462.404	351.89
462.771	415.72
463.137	441.26
463.503	374.87
463.868	397.85
464.234	359.55
464.6	397.85
464.966	487.22
465.332	418.28
465.697	362.1
466.063	385.08
466.429	423.38
466.794	382.53
467.16	397.85
467.525	420.83
467.89	448.92
468.256	385.08
468.621	369.76
468.986	387.63
469.351	431.04
469.717	413.17
470.082	423.38
470.447	425.94
470.812	372.31
471.177	441.26
471.542	471.9
471.906	405.51
472.271	428.49
472.636	344.23
473.001	436.15
473.365	431.04
473.73	413.17
474.094	356.99
474.459	351.89
474.823	367.21
475.188	374.87
475.552	436.15
475.917	382.53
476.281	395.29
476.645	397.85
477.009	428.49
477.373	341.67
477.737	405.51
478.101	433.6
478.465	423.38
478.829	346.78
479.193	405.51
479.557	331.46
479.921	502.54
480.284	400.4
480.648	423.38
481.012	397.85
481.375	410.62
481.739	441.26
482.102	436.15
482.466	405.51
482.829	372.31
483.193	385.08
483.556	420.83
483.919	382.53
484.282	438.7
484.645	425.94
485.009	423.38
485.372	349.33
485.735	425.94
486.098	413.17
486.46	459.13
486.823	385.08
487.186	441.26
487.549	418.28
487.912	451.47
488.274	454.02
488.637	377.42
488.999	451.47
489.362	387.63
489.724	405.51
490.087	456.58
490.449	372.31
490.811	374.87
491.174	418.28
491.536	402.95
491.898	418.28
492.26	446.36
492.622	362.1
492.984	397.85
493.346	379.97
493.708	418.28
494.07	428.49
494.432	431.04
494.794	367.21
495.155	436.15
495.517	448.92
495.879	423.38
496.24	395.29
496.602	408.06
496.963	356.99
497.325	433.6
497.686	466.79
498.048	402.95
498.409	413.17
498.77	367.21
499.131	395.29
499.492	387.63
499.854	456.58
500.215	395.29
500.576	397.85
500.937	438.7
501.298	402.95
501.658	362.1
502.019	418.28
502.38	397.85
502.741	438.7
503.101	466.79
503.462	369.76
503.823	443.81
504.183	397.85
504.543	459.13
504.904	402.95
505.264	390.19
505.625	374.87
505.985	413.17
506.345	489.77
506.705	405.51
507.065	390.19
507.426	382.53
507.786	374.87
508.146	356.99
508.505	377.42
508.865	385.08
509.225	431.04
509.585	545.94
509.945	397.85
510.304	413.17
510.664	433.6
511.024	364.65
511.383	288.05
511.743	423.38
512.102	323.8
512.462	420.83
512.821	428.49
513.18	400.4
513.539	395.29
513.899	397.85
514.258	369.76
514.617	377.42
514.976	344.23
515.335	423.38
515.694	367.21
516.053	400.4
516.412	362.1
516.771	397.85
517.129	369.76
517.488	413.17
517.847	425.94
518.205	395.29
518.564	520.41
518.922	405.51
519.281	385.08
519.639	469.34
519.998	428.49
520.356	387.63
520.714	402.95
521.073	362.1
521.431	402.95
521.789	367.21
522.147	438.7
522.505	405.51
522.863	425.94
523.221	425.94
523.579	448.92
523.937	515.3
524.295	469.34
524.652	438.7
525.01	438.7
525.368	428.49
525.725	385.08
526.083	351.89
526.44	402.95
526.798	397.85
527.155	428.49
527.513	428.49
527.87	364.65
528.227	364.65
528.584	433.6
528.942	423.38
529.299	402.95
529.656	413.17
530.013	402.95
530.37	410.62
530.727	436.15
531.083	415.72
531.44	425.94
531.797	451.47
532.154	405.51
532.511	356.99
532.867	362.1
533.224	408.06
533.58	446.36
533.937	392.74
534.293	423.38
534.65	395.29
535.006	392.74
535.362	362.1
535.718	364.65
536.075	395.29
536.431	382.53
536.787	390.19
537.143	339.12
537.499	387.63
537.855	356.99
538.211	466.79
538.567	482.11
538.923	410.62
539.278	413.17
539.634	402.95
539.99	387.63
540.345	466.79
540.701	415.72
541.056	354.44
541.412	425.94
541.767	418.28
542.123	413.17
542.478	459.13
542.833	448.92
543.188	428.49
543.544	428.49
543.899	431.04
544.254	489.77
544.609	433.6
544.964	413.17
545.319	423.38
545.674	390.19
546.029	392.74
546.383	400.4
546.738	359.55
547.093	471.9
547.447	405.51
547.802	359.55
548.157	390.19
548.511	359.55
548.866	436.15
549.22	469.34
549.574	385.08
549.929	369.76
550.283	354.44
550.637	428.49
550.991	423.38
551.345	408.06
551.699	359.55
552.053	428.49
552.407	402.95
552.761	354.44
553.115	413.17
553.469	415.72
553.823	428.49
554.176	405.51
554.53	418.28
554.884	436.15
555.237	617.44
555.591	428.49
555.944	479.56
556.298	423.38
556.651	464.24
557.005	451.47
557.358	464.24
557.711	443.81
558.064	436.15
558.417	466.79
558.771	415.72
559.124	487.22
559.477	379.97
559.83	423.38
560.182	402.95
560.535	351.89
560.888	413.17
561.241	410.62
561.594	446.36
561.946	379.97
562.299	395.29
562.651	446.36
563.004	390.19
563.356	367.21
563.709	344.23
564.061	356.99
564.413	382.53
564.766	431.04
565.118	428.49
565.47	356.99
565.822	433.6
566.174	441.26
566.526	410.62
566.878	418.28
567.23	382.53
567.582	390.19
567.934	400.4
568.286	436.15
568.638	438.7
568.989	344.23
569.341	461.68
569.693	364.65
570.044	341.67
570.396	428.49
570.747	448.92
571.098	405.51
571.45	387.63
571.801	420.83
572.152	423.38
572.504	454.02
572.855	377.42
573.206	372.31
573.557	436.15
573.908	410.62
574.259	369.76
574.61	382.53
574.961	477
575.311	438.7
575.662	400.4
576.013	400.4
576.364	390.19
576.714	382.53
577.065	454.02
577.415	425.94
577.766	369.76
578.116	441.26
578.467	385.08
578.817	369.76
579.167	387.63
579.518	441.26
579.868	461.68
580.218	362.1
580.568	328.91
580.918	418.28
581.268	441.26
581.618	461.68
581.968	405.51
582.318	441.26
582.668	362.1
583.017	390.19
583.367	415.72
583.717	443.81
584.066	379.97
584.416	425.94
584.765	395.29
585.115	372.31
585.464	334.01
585.814	405.51
586.163	459.13
586.512	356.99
586.862	400.4
587.211	423.38
587.56	387.63
587.909	423.38
588.258	377.42
588.607	369.76
588.956	446.36
589.305	438.7
589.654	395.29
590.002	408.06
590.351	415.72
590.7	433.6
591.048	464.24
591.397	438.7
591.746	438.7
592.094	397.85
592.443	400.4
592.791	436.15
593.139	367.21
593.488	387.63
593.836	392.74
594.184	446.36
594.532	423.38
594.88	484.66
595.228	387.63
595.576	466.79
595.924	402.95
596.272	390.19
596.62	359.55
596.968	387.63
597.316	372.31
597.664	425.94
598.011	405.51
598.359	390.19
598.706	515.3
599.054	364.65
599.402	402.95
599.749	454.02
600.096	390.19
600.444	354.44
600.791	336.57
601.138	359.55
601.485	461.68
601.833	395.29
602.18	382.53
602.527	326.35
602.874	344.23
603.221	410.62
603.568	387.63
603.914	482.11
604.261	382.53
604.608	443.81
604.955	405.51
605.301	392.74
605.648	446.36
605.995	436.15
606.341	390.19
606.688	377.42
607.034	354.44
607.38	397.85
607.727	402.95
608.073	471.9
608.419	392.74
608.765	356.99
609.112	362.1
609.458	395.29
609.804	446.36
610.15	420.83
610.496	356.99
610.842	405.51
611.187	387.63
611.533	402.95
611.879	477
612.225	423.38
612.57	443.81
612.916	479.56
613.261	441.26
613.607	356.99
613.952	436.15
614.298	415.72
614.643	418.28
614.989	390.19
615.334	362.1
615.679	392.74
616.024	372.31
616.369	433.6
616.714	395.29
617.059	359.55
617.404	395.29
617.749	436.15
618.094	405.51
618.439	408.06
618.784	369.76
619.129	321.25
619.473	428.49
619.818	433.6
620.163	418.28
620.507	436.15
620.852	364.65
621.196	392.74
621.54	446.36
621.885	464.24
622.229	397.85
622.573	382.53
622.918	390.19
623.262	474.45
623.606	436.15
623.95	408.06
624.294	349.33
624.638	385.08
624.982	441.26
625.326	448.92
625.67	392.74
626.013	425.94
626.357	413.17
626.701	400.4
627.044	408.06
627.388	364.65
627.731	443.81
628.075	446.36
628.418	349.33
628.762	331.46
629.105	397.85
629.448	400.4
629.792	454.02
630.135	441.26
630.478	364.65
630.821	372.31
631.164	400.4
631.507	400.4
631.85	415.72
632.193	336.57
632.536	359.55
632.879	379.97
633.221	420.83
633.564	402.95
633.907	382.53
634.249	385.08
634.592	415.72
634.935	379.97
635.277	344.23
635.619	415.72
635.962	413.17
636.304	346.78
636.646	405.51
636.989	367.21
637.331	377.42
637.673	379.97
638.015	413.17
638.357	397.85
638.699	459.13
639.041	331.46
639.383	349.33
639.725	431.04
640.067	438.7
640.408	413.17
640.75	349.33
641.092	385.08
641.433	374.87
641.775	443.81
642.116	441.26
642.458	436.15
642.799	356.99
643.141	387.63
643.482	436.15
643.823	385.08
644.164	356.99
644.506	474.45
644.847	356.99
645.188	433.6
645.529	392.74
645.87	438.7
646.211	441.26
646.552	387.63
646.893	400.4
647.233	379.97
647.574	362.1
647.915	436.15
648.255	408.06
648.596	425.94
648.937	461.68
649.277	466.79
649.618	392.74
649.958	408.06
650.298	362.1
650.639	369.76
650.979	377.42
651.319	415.72
651.659	489.77
651.999	420.83
652.339	466.79
652.679	413.17
653.019	316.14
653.359	367.21
653.699	395.29
654.039	382.53
654.379	379.97
654.719	408.06
655.058	402.95
655.398	351.89
655.737	441.26
656.077	400.4
656.416	372.31
656.756	385.08
657.095	390.19
657.435	410.62
657.774	400.4
658.113	395.29
658.452	397.85
658.792	359.55
659.131	400.4
659.47	379.97
659.809	408.06
660.148	433.6
660.487	369.76
660.826	395.29
661.164	390.19
661.503	351.89
661.842	359.55
662.181	425.94
662.519	367.21
662.858	395.29
663.196	431.04
663.535	405.51
663.873	428.49
664.212	433.6
664.55	397.85
664.888	436.15
665.226	413.17
665.565	362.1
665.903	604.67
666.241	418.28
666.579	372.31
666.917	369.76
667.255	359.55
667.593	405.51
667.931	408.06
668.268	415.72
668.606	415.72
668.944	374.87
669.282	372.31
669.619	413.17
669.957	392.74
670.294	341.67
670.632	351.89
670.969	405.51
671.307	395.29
671.644	415.72
671.981	374.87
672.318	436.15
672.656	408.06
672.993	494.88
673.33	382.53
673.667	351.89
674.004	367.21
674.341	448.92
674.678	390.19
675.015	420.83
675.351	451.47
675.688	372.31
676.025	387.63
676.362	323.8
676.698	298.27
677.035	400.4
677.371	400.4
677.708	418.28
678.044	305.93
678.38	390.19
678.717	410.62
679.053	410.62
679.389	428.49
679.725	336.57
680.062	405.51
680.398	451.47
680.734	339.12
681.07	392.74
681.406	413.17
681.742	392.74
682.077	374.87
682.413	410.62
682.749	400.4
683.085	374.87
683.42	369.76
683.756	392.74
684.091	364.65
684.427	420.83
684.762	392.74
685.098	410.62
685.433	390.19
685.768	408.06
686.104	390.19
686.439	400.4
686.774	369.76
687.109	410.62
687.444	362.1
687.779	349.33
688.114	400.4
688.449	390.19
688.784	425.94
689.119	446.36
689.454	328.91
689.789	425.94
690.123	354.44
690.458	448.92
690.792	418.28
691.127	374.87
691.461	397.85
691.796	397.85
692.13	377.42
692.465	392.74
692.799	346.78
693.133	351.89
693.467	397.85
693.802	438.7
694.136	431.04
694.47	438.7
694.804	456.58
695.138	397.85
695.472	408.06
695.806	446.36
696.139	392.74
696.473	413.17
696.807	408.06
697.141	387.63
697.474	428.49
697.808	400.4
698.141	354.44
698.475	367.21
698.808	387.63
699.142	469.34
699.475	405.51
699.808	413.17
700.142	387.63
700.475	413.17
700.808	413.17
701.141	408.06
701.474	364.65
701.807	408.06
702.14	395.29
702.473	359.55
702.806	377.42
703.139	387.63
703.472	372.31
703.804	413.17
704.137	385.08
704.47	331.46
704.802	362.1
705.135	359.55
705.467	354.44
705.8	346.78
706.132	431.04
706.464	446.36
706.797	344.23
707.129	321.25
707.461	367.21
707.793	369.76
708.125	418.28
708.457	408.06
708.789	400.4
709.121	443.81
709.453	354.44
709.785	362.1
710.117	459.13
710.449	374.87
710.781	436.15
711.112	413.17
711.444	374.87
711.775	367.21
712.107	408.06
712.438	433.6
712.77	431.04
713.101	443.81
713.433	438.7
713.764	408.06
714.095	385.08
714.426	405.51
714.757	425.94
715.089	402.95
715.42	362.1
715.751	377.42
716.082	397.85
716.412	413.17
716.743	385.08
717.074	385.08
717.405	402.95
717.736	346.78
718.066	379.97
718.397	351.89
718.727	418.28
719.058	395.29
719.388	413.17
719.719	359.55
720.049	369.76
720.38	372.31
720.71	382.53
721.04	359.55
721.37	482.11
721.7	385.08
722.031	395.29
722.361	441.26
722.691	390.19
723.021	395.29
723.35	351.89
723.68	489.77
724.01	395.29
724.34	364.65
724.67	367.21
724.999	374.87
725.329	311.03
725.658	418.28
725.988	346.78
726.317	362.1
726.647	367.21
726.976	390.19
727.306	362.1
727.635	448.92
727.964	425.94
728.293	459.13
728.622	385.08
728.952	420.83
729.281	362.1
729.61	356.99
729.939	402.95
730.267	377.42
730.596	385.08
730.925	410.62
731.254	377.42
731.583	431.04
731.911	346.78
732.24	418.28
732.568	441.26
732.897	367.21
733.225	374.87
733.554	418.28
733.882	356.99
734.21	410.62
734.539	438.7
734.867	397.85
735.195	321.25
735.523	423.38
735.851	405.51
736.179	351.89
736.507	392.74
736.835	415.72
737.163	334.01
737.491	402.95
737.819	405.51
738.147	334.01
738.474	377.42
738.802	331.46
739.13	451.47
739.457	387.63
739.785	377.42
740.112	459.13
740.44	405.51
740.767	400.4
741.094	448.92
741.422	443.81
741.749	397.85
742.076	377.42
742.403	334.01
742.73	402.95
743.057	374.87
743.384	346.78
743.711	367.21
744.038	408.06
744.365	451.47
744.692	397.85
745.018	346.78
745.345	387.63
745.672	341.67
745.998	379.97
746.325	321.25
746.651	387.63
746.978	392.74
747.304	359.55
747.631	405.51
747.957	400.4
748.283	438.7
748.61	390.19
748.936	369.76
749.262	346.78
749.588	451.47
749.914	392.74
750.24	374.87
750.566	323.8
750.892	402.95
751.218	334.01
751.543	410.62
751.869	367.21
752.195	377.42
752.521	420.83
752.846	362.1
753.172	400.4
753.497	392.74
753.823	382.53
754.148	323.8
754.473	374.87
754.799	385.08
755.124	395.29
755.449	441.26
755.774	443.81
756.1	438.7
756.425	356.99
756.75	336.57
757.075	364.65
757.4	507.64
757.724	372.31
758.049	428.49
758.374	408.06
758.699	433.6
759.024	402.95
759.348	405.51
759.673	418.28
759.997	433.6
760.322	359.55
760.646	395.29
760.971	448.92
761.295	402.95
761.619	441.26
761.944	379.97
762.268	438.7
762.592	454.02
762.916	471.9
763.24	528.07
763.564	410.62
763.888	474.45
764.212	528.07
764.536	497.43
764.86	566.37
765.184	538.28
765.508	599.57
765.831	602.12
766.155	954.48
766.478	681.27
766.802	709.36
767.126	796.18
767.449	740
767.772	834.48
768.096	964.7
768.419	987.68
768.742	893.2
769.066	931.5
769.389	964.7
769.712	1059.17
770.035	969.8
770.358	1151.09
770.681	1232.8
771.004	1202.16
771.327	1204.72
771.65	1311.96
771.972	1296.64
772.295	1327.28
772.618	1286.42
772.941	1403.88
773.263	1299.19
773.586	1480.48
773.908	1597.94
774.231	1618.36
774.553	1769.01
774.875	1820.08
775.198	1802.21
775.52	1779.23
775.842	1717.94
776.164	1753.69
776.487	1799.65
776.809	1738.37
777.131	1860.93
777.453	1758.8
777.775	1807.31
778.096	1978.39
778.418	2029.46
778.74	1932.43
779.062	1957.96
779.384	2123.93
779.705	2415.02
780.027	2660.14
780.348	2708.66
780.67	2634.61
780.991	2655.03
781.313	2846.54
781.634	3117.2
781.955	2856.75
782.277	2716.32
782.598	2716.32
782.919	2767.38
783.24	2790.36
783.561	2798.02
783.882	2859.3
784.203	2823.56
784.524	2849.09
784.845	2769.94
785.166	2476.3
785.487	2588.65
785.807	2514.6
786.128	2501.83
786.449	2448.21
786.769	2652.48
787.09	2647.37
787.41	2861.86
787.731	2997.19
788.051	3262.74
788.372	3293.38
788.692	3474.67
789.012	3816.82
789.332	3714.69
789.653	3750.43
789.973	3980.24
790.293	3842.36
790.613	3410.83
790.933	3104.43
791.253	3142.73
791.573	3063.57
791.893	2831.22
792.212	2675.46
792.532	2578.43
792.852	2624.39
793.171	2496.72
793.491	2402.25
793.811	2323.1
794.13	2453.32
794.45	2486.51
794.769	2494.17
795.088	2642.27
795.408	2662.69
795.727	2907.82
796.046	2729.08
796.365	2565.67
796.684	2369.06
797.004	2328.2
797.323	2466.08
797.642	2831.22
797.96	2836.32
798.279	2731.64
798.598	2685.67
798.917	2443.1
799.236	2264.37
799.554	2231.17
799.873	2157.13
800.192	2210.75
800.51	2305.22
800.829	2282.24
801.147	2254.15
801.466	2090.74
801.784	2090.74
802.102	2037.12
802.421	2167.34
802.739	2302.67
803.057	2108.61
803.375	1863.49
803.693	1917.11
804.011	1983.5
804.329	2192.87
804.647	2095.84
804.965	1968.18
805.283	2011.58
805.601	2003.92
805.918	1832.85
806.236	1717.94
806.554	1710.28
806.871	1766.46
807.189	1932.43
807.507	1952.86
807.824	1917.11
808.141	1728.16
808.459	1531.55
808.776	1421.75
809.093	1268.55
809.411	1158.75
809.728	1237.91
810.045	1214.93
810.362	1161.31
810.679	1258.34
810.996	1222.59
811.313	1278.76
811.63	1291.53
811.947	1240.46
812.264	1294.08
812.58	1255.78
812.897	1207.27
813.214	1309.4
813.53	1171.52
813.847	1240.46
814.163	1225.14
814.48	1253.23
814.796	1243.02
815.113	1194.5
815.429	1135.77
815.745	1087.26
816.061	1112.79
816.378	1025.98
816.694	1051.51
817.01	1043.85
817.326	1023.43
817.642	980.02
817.958	875.33
818.274	893.2
818.59	793.62
818.905	727.23
819.221	801.28
819.537	821.71
819.852	793.62
820.168	760.43
820.484	681.27
820.799	875.33
821.115	849.8
821.43	806.39
821.745	839.58
822.061	775.75
822.376	729.79
822.691	808.94
823.006	765.53
823.322	722.13
823.637	709.36
823.952	686.38
824.267	660.85
824.582	642.97
824.897	597.01
825.211	691.49
825.526	660.85
825.841	637.87
826.156	612.33
826.47	594.46
826.785	566.37
827.1	520.41
827.414	594.46
827.729	591.9
828.043	609.78
828.357	548.5
828.672	607.23
828.986	574.03
829.3	648.08
829.614	612.33
829.929	571.48
830.243	614.89
830.557	609.78
830.871	594.46
831.185	469.34
831.499	494.88
831.812	599.57
832.126	499.98
832.44	517.86
832.754	561.26
833.067	558.71
833.381	525.52
833.695	581.69
834.008	479.56
834.322	479.56
834.635	494.88
834.948	466.79
835.262	382.53
835.575	525.52
835.888	433.6
836.201	400.4
836.515	433.6
836.828	512.75
837.141	456.58
837.454	436.15
837.767	461.68
838.08	451.47
838.392	410.62
838.705	413.17
839.018	469.34
839.331	390.19
839.643	487.22
839.956	446.36
840.269	451.47
840.581	428.49
840.894	425.94
841.206	413.17
841.519	545.94
841.831	446.36
842.143	454.02
842.455	479.56
842.768	431.04
843.08	425.94
843.392	387.63
843.704	436.15
844.016	402.95
844.328	400.4
844.64	346.78
844.952	382.53
845.263	372.31
845.575	456.58
845.887	410.62
846.199	418.28
846.51	410.62
846.822	415.72
847.133	408.06
847.445	395.29
847.756	397.85
848.068	405.51
848.379	402.95
848.69	387.63
849.002	397.85
849.313	341.67
849.624	423.38
849.935	379.97
850.246	418.28
850.557	351.89
850.868	400.4
851.179	441.26
851.49	395.29
851.801	346.78
852.112	405.51
852.422	374.87
852.733	385.08
853.044	392.74
853.354	413.17
853.665	382.53
853.975	387.63
854.286	372.31
854.596	436.15
854.906	344.23
855.217	379.97
855.527	418.28
855.837	364.65
856.147	377.42
856.458	372.31
856.768	390.19
857.078	454.02
857.388	387.63
857.698	346.78
858.007	349.33
858.317	359.55
858.627	379.97
858.937	382.53
859.246	356.99
859.556	385.08
859.866	400.4
860.175	369.76
860.485	390.19
860.794	351.89
861.104	387.63
861.413	359.55
861.722	344.23
862.032	395.29
862.341	446.36
862.65	438.7
862.959	359.55
863.268	341.67
863.577	341.67
863.886	402.95
864.195	372.31
864.504	349.33
864.813	456.58
865.122	400.4
865.43	461.68
865.739	436.15
866.048	400.4
866.356	372.31
866.665	425.94
866.973	410.62
867.282	433.6
867.59	425.94
867.899	471.9
868.207	428.49
868.515	379.97
868.823	364.65
869.132	402.95
869.44	334.01
869.748	413.17
870.056	369.76
870.364	423.38
870.672	344.23
870.98	428.49
871.288	354.44
871.595	379.97
871.903	364.65
872.211	428.49
872.518	387.63
872.826	387.63
873.134	385.08
873.441	397.85
873.749	367.21
874.056	397.85
874.363	418.28
874.671	377.42
874.978	331.46
875.285	392.74
875.592	372.31
875.9	331.46
876.207	413.17
876.514	390.19
876.821	364.65
877.128	328.91
877.435	369.76
877.741	400.4
878.048	390.19
878.355	382.53
878.662	405.51
878.968	385.08
879.275	328.91
879.582	395.29
879.888	385.08
880.195	408.06
880.501	356.99
880.807	425.94
881.114	367.21
881.42	367.21
881.726	372.31
882.032	392.74
882.339	402.95
882.645	408.06
882.951	367.21
883.257	385.08
883.563	339.12
883.869	385.08
884.174	438.7
884.48	372.31
884.786	377.42
885.092	436.15
885.397	402.95
885.703	331.46
886.009	344.23
886.314	397.85
886.62	408.06
886.925	390.19
887.231	334.01
887.536	377.42
887.841	448.92
888.146	356.99
888.452	390.19
888.757	392.74
889.062	413.17
889.367	392.74
889.672	392.74
889.977	369.76
890.282	461.68
890.587	354.44
890.892	415.72
891.196	364.65
891.501	354.44
891.806	395.29
892.11	356.99
892.415	321.25
892.72	387.63
893.024	423.38
893.328	413.17
893.633	372.31
893.937	395.29
894.242	346.78
894.546	390.19
894.85	415.72
895.154	420.83
895.458	372.31
895.762	433.6
896.066	415.72
896.37	397.85
896.674	364.65
896.978	415.72
897.282	441.26
897.586	402.95
897.89	362.1
898.193	387.63
898.497	469.34
898.801	415.72
899.104	482.11
899.408	303.37
899.711	382.53
900.014	316.14
900.318	341.67
900.621	410.62
900.924	402.95
901.228	374.87
901.531	346.78
901.834	359.55
902.137	334.01
902.44	359.55
902.743	331.46
903.046	423.38
903.349	308.48
903.652	367.21
903.955	390.19
904.257	431.04
904.56	379.97
904.863	379.97
905.165	321.25
905.468	349.33
905.77	400.4
906.073	395.29
906.375	410.62
906.678	400.4
906.98	328.91
907.282	303.37
907.584	311.03
907.887	410.62
908.189	390.19
908.491	364.65
908.793	387.63
909.095	359.55
909.397	405.51
909.699	410.62
910.001	387.63
910.302	392.74
910.604	395.29
910.906	408.06
911.208	379.97
911.509	408.06
911.811	374.87
912.112	367.21
912.414	387.63
912.715	410.62
913.017	418.28
913.318	367.21
913.619	423.38
913.92	423.38
914.222	446.36
914.523	438.7
914.824	423.38
915.125	339.12
915.426	451.47
915.727	397.85
916.028	367.21
916.329	379.97
916.63	420.83
916.93	400.4
917.231	402.95
917.532	377.42
917.832	334.01
918.133	405.51
918.434	385.08
918.734	390.19
919.034	367.21
919.335	464.24
919.635	387.63
919.935	336.57
920.236	425.94
920.536	331.46
920.836	385.08
921.136	351.89
921.436	459.13
921.736	341.67
922.036	431.04
922.336	331.46
922.636	359.55
922.936	387.63
923.236	410.62
923.535	400.4
923.835	344.23
924.135	349.33
924.434	372.31
924.734	410.62
925.033	446.36
925.333	494.88
925.632	364.65
925.932	451.47
926.231	420.83
926.53	387.63
926.83	400.4
927.129	402.95
927.428	415.72
927.727	400.4
928.026	362.1
928.325	441.26
928.624	425.94
928.923	402.95
929.222	405.51
929.52	390.19
929.819	354.44
930.118	397.85
930.417	313.59
930.715	356.99
931.014	323.8
931.312	392.74
931.611	362.1
931.909	397.85
932.207	464.24
932.506	392.74
932.804	405.51
933.102	425.94
933.401	326.35
933.699	385.08
933.997	425.94
934.295	336.57
934.593	326.35
934.891	392.74
935.189	382.53
935.487	408.06
935.784	433.6
936.082	372.31
936.38	369.76
936.677	425.94
936.975	362.1
937.273	425.94
937.57	354.44
937.868	431.04
938.165	402.95
938.463	395.29
938.76	356.99
939.057	387.63
939.354	354.44
939.652	359.55
939.949	392.74
940.246	377.42
940.543	418.28
940.84	367.21
941.137	405.51
941.434	400.4
941.731	331.46
942.028	356.99
942.324	387.63
942.621	326.35
942.918	410.62
943.214	349.33
943.511	418.28
943.807	372.31
944.104	397.85
944.4	385.08
944.697	349.33
944.993	387.63
945.29	369.76
945.586	413.17
945.882	418.28
946.178	390.19
946.474	362.1
946.77	405.51
947.066	441.26
947.362	443.81
947.658	466.79
947.954	441.26
948.25	443.81
948.546	395.29
948.842	420.83
949.137	372.31
949.433	328.91
949.729	369.76
950.024	387.63
950.32	395.29
950.615	369.76
950.91	374.87
951.206	405.51
951.501	367.21
951.796	413.17
952.092	364.65
952.387	397.85
952.682	316.14
952.977	377.42
953.272	364.65
953.567	387.63
953.862	336.57
954.157	387.63
954.452	408.06
954.747	469.34
955.041	387.63
955.336	356.99
955.631	408.06
955.925	392.74
956.22	418.28
956.514	392.74
956.809	341.67
957.103	397.85
957.398	374.87
957.692	408.06
957.986	400.4
958.281	390.19
958.575	377.42
958.869	408.06
959.163	331.46
959.457	395.29
959.751	415.72
960.045	387.63
960.339	448.92
960.633	385.08
960.927	448.92
961.221	387.63
961.514	408.06
961.808	326.35
962.102	377.42
962.395	413.17
962.689	418.28
962.982	423.38
963.276	469.34
963.569	418.28
963.862	431.04
964.156	402.95
964.449	349.33
964.742	382.53
965.035	387.63
965.328	441.26
965.622	436.15
965.915	425.94
966.208	323.8
966.5	362.1
966.793	364.65
967.086	377.42
967.379	336.57
967.672	428.49
967.964	374.87
968.257	346.78
968.55	459.13
968.842	351.89
969.135	367.21
969.427	433.6
969.72	402.95
970.012	377.42
970.304	456.58
970.597	372.31
970.889	400.4
971.181	395.29
971.473	402.95
971.765	397.85
972.057	339.12
972.349	374.87
972.641	372.31
972.933	369.76
973.225	356.99
973.517	436.15
973.809	454.02
974.1	344.23
974.392	385.08
974.684	346.78
974.975	387.63
975.267	379.97
975.558	356.99
975.85	382.53
976.141	418.28
976.432	326.35
976.724	288.05
977.015	448.92
977.306	420.83
977.597	285.5
977.888	397.85
978.179	379.97
978.47	362.1
978.761	379.97
979.052	331.46
979.343	346.78
979.634	415.72
979.925	390.19
980.215	364.65
980.506	405.51
980.797	377.42
981.087	423.38
981.378	405.51
981.668	423.38
981.959	377.42
982.249	372.31
982.54	349.33
982.83	356.99
983.12	415.72
983.41	387.63
983.701	369.76
983.991	349.33
984.281	418.28
984.571	397.85
984.861	402.95
985.151	369.76
985.441	395.29
985.73	402.95
986.02	392.74
986.31	313.59
986.6	364.65
986.889	377.42
987.179	369.76
987.469	369.76
987.758	367.21
988.048	362.1
988.337	362.1
988.626	390.19
988.916	323.8
989.205	397.85
989.494	359.55
989.783	420.83
990.073	379.97
990.362	402.95
990.651	326.35
990.94	359.55
991.229	446.36
991.518	339.12
991.806	385.08
992.095	377.42
992.384	374.87
992.673	336.57
992.961	390.19
993.25	392.74
993.539	392.74
993.827	392.74
994.116	377.42
994.404	374.87
994.692	344.23
994.981	390.19
995.269	349.33
995.557	341.67
995.846	326.35
996.134	372.31
996.422	349.33
996.71	374.87
996.998	349.33
997.286	377.42
997.574	400.4
997.862	410.62
998.15	443.81
998.437	405.51
998.725	321.25
999.013	405.51
999.3	451.47
999.588	349.33
999.876	423.38
1000.163	425.94
1000.45	382.53
1000.738	400.4
1001.025	400.4
1001.313	369.76
1001.6	351.89
1001.887	349.33
1002.174	318.69
1002.461	405.51
1002.748	293.16
1003.036	374.87
1003.322	415.72
1003.609	379.97
1003.896	372.31
1004.183	397.85
1004.47	423.38
1004.757	433.6
1005.043	415.72
1005.33	390.19
1005.617	382.53
1005.903	374.87
1006.19	369.76
1006.476	413.17
1006.763	313.59
1007.049	405.51
1007.335	413.17
1007.622	323.8
1007.908	395.29
1008.194	387.63
1008.48	397.85
1008.766	379.97
1009.053	392.74
1009.339	321.25
1009.625	408.06
1009.91	362.1
1010.196	410.62
1010.482	354.44
1010.768	385.08
1011.054	377.42
1011.339	405.51
1011.625	456.58
1011.911	387.63
1012.196	367.21
1012.482	326.35
1012.767	387.63
1013.052	438.7
1013.338	362.1
1013.623	438.7
1013.908	377.42
1014.194	387.63
1014.479	423.38
1014.764	374.87
1015.049	454.02
1015.334	372.31
1015.619	372.31
1015.904	379.97
1016.189	326.35
1016.474	374.87
1016.758	415.72
1017.043	369.76
1017.328	379.97
1017.613	295.71
1017.897	326.35
1018.182	367.21
1018.466	415.72
1018.751	354.44
1019.035	418.28
1019.32	428.49
1019.604	402.95
1019.888	408.06
1020.172	408.06
1020.457	408.06
