Data from 2025-12-03_xpw_interference_micrometer_631_FLMS141361__5__555.txt Node

Date: Wed Dec 03 15:54:04 MST 2025
User: james
Spectrometer: FLMS14136
Trigger mode: 0
Integration Time (sec): 1.000000E-1
Scans to average: 1
Electric dark correction enabled: true
Nonlinearity correction enabled: false
Boxcar width: 0
XAxis mode: Wavelengths
Number of Pixels in Spectrum: 2048
>>>>>Begin Spectral Data<<<<<
339.315	-24.42
339.697	-24.42
340.079	-24.42
340.461	-88.25
340.843	-116.34
341.225	-70.38
341.607	-65.27
341.989	-162.3
342.371	-103.57
342.752	-95.91
343.134	-1.44
343.516	21.54
343.897	24.1
344.279	-29.52
344.661	-34.63
345.042	52.18
345.423	59.84
345.805	70.06
346.186	105.81
346.567	118.57
346.949	110.91
347.33	210.49
347.711	144.11
348.092	182.41
348.473	236.03
348.854	271.78
349.235	276.88
349.616	233.47
349.997	292.2
350.378	315.18
350.758	241.13
351.139	381.57
351.52	333.06
351.9	292.2
352.281	373.91
352.661	414.76
353.042	427.53
353.422	389.23
353.803	384.12
354.183	348.38
354.563	327.95
354.943	348.38
355.324	361.14
355.704	445.4
356.084	396.89
356.464	340.72
356.844	386.68
357.224	366.25
357.603	384.12
357.983	333.06
358.363	432.64
358.743	363.7
359.122	389.23
359.502	343.27
359.882	409.66
360.261	381.57
360.641	343.27
361.02	340.72
361.399	338.16
361.779	315.18
362.158	371.36
362.537	404.55
362.916	381.57
363.296	304.97
363.675	317.74
364.054	376.46
364.433	343.27
364.812	320.29
365.19	327.95
365.569	422.42
365.948	292.2
366.327	409.66
366.705	447.96
367.084	310.08
367.463	417.32
367.841	363.7
368.22	366.25
368.598	379.02
368.977	330.5
369.355	358.59
369.733	409.66
370.111	358.59
370.49	432.64
370.868	376.46
371.246	396.89
371.624	417.32
372.002	396.89
372.38	356.04
372.758	419.87
373.136	368.8
373.513	333.06
373.891	414.76
374.269	322.84
374.646	422.42
375.024	366.25
375.402	353.48
375.779	353.48
376.157	379.02
376.534	315.18
376.911	343.27
377.289	363.7
377.666	322.84
378.043	453.07
378.42	470.94
378.797	389.23
379.175	384.12
379.552	384.12
379.929	366.25
380.305	330.5
380.682	340.72
381.059	424.98
381.436	373.91
381.813	348.38
382.189	356.04
382.566	417.32
382.943	322.84
383.319	409.66
383.696	350.93
384.072	373.91
384.448	312.63
384.825	297.31
385.201	391.78
385.577	386.68
385.953	358.59
386.329	394.34
386.706	366.25
387.082	386.68
387.458	353.48
387.834	458.17
388.209	445.4
388.585	384.12
388.961	435.19
389.337	419.87
389.713	322.84
390.088	399.44
390.464	348.38
390.839	297.31
391.215	376.46
391.59	363.7
391.966	376.46
392.341	391.78
392.716	345.82
393.092	379.02
393.467	424.98
393.842	419.87
394.217	412.21
394.592	435.19
394.967	391.78
395.342	363.7
395.717	402
396.092	361.14
396.467	389.23
396.841	381.57
397.216	399.44
397.591	356.04
397.965	361.14
398.34	396.89
398.714	391.78
399.089	386.68
399.463	363.7
399.838	345.82
400.212	414.76
400.586	417.32
400.961	379.02
401.335	363.7
401.709	384.12
402.083	363.7
402.457	399.44
402.831	371.36
403.205	409.66
403.579	373.91
403.953	363.7
404.326	381.57
404.7	396.89
405.074	432.64
405.447	338.16
405.821	373.91
406.195	340.72
406.568	384.12
406.942	427.53
407.315	437.74
407.688	389.23
408.062	417.32
408.435	379.02
408.808	470.94
409.181	404.55
409.554	432.64
409.927	409.66
410.3	396.89
410.673	396.89
411.046	424.98
411.419	345.82
411.792	386.68
412.165	373.91
412.537	430.08
412.91	389.23
413.283	373.91
413.655	379.02
414.028	379.02
414.4	381.57
414.773	407.1
415.145	460.73
415.517	376.46
415.889	335.61
416.262	422.42
416.634	414.76
417.006	442.85
417.378	440.3
417.75	389.23
418.122	432.64
418.494	450.51
418.866	376.46
419.238	396.89
419.609	381.57
419.981	453.07
420.353	340.72
420.725	373.91
421.096	404.55
421.468	381.57
421.839	442.85
422.211	473.49
422.582	373.91
422.953	322.84
423.325	330.5
423.696	386.68
424.067	432.64
424.438	358.59
424.809	379.02
425.18	396.89
425.551	409.66
425.922	437.74
426.293	402
426.664	402
427.035	465.83
427.406	427.53
427.776	338.16
428.147	356.04
428.518	458.17
428.888	384.12
429.259	394.34
429.629	442.85
429.999	404.55
430.37	404.55
430.74	424.98
431.11	404.55
431.481	391.78
431.851	450.51
432.221	465.83
432.591	368.8
432.961	404.55
433.331	396.89
433.701	371.36
434.071	363.7
434.441	386.68
434.81	419.87
435.18	358.59
435.55	407.1
435.919	419.87
436.289	368.8
436.658	361.14
437.028	376.46
437.397	419.87
437.767	366.25
438.136	391.78
438.505	463.28
438.875	496.47
439.244	412.21
439.613	404.55
439.982	417.32
440.351	402
440.72	389.23
441.089	366.25
441.458	368.8
441.827	409.66
442.196	422.42
442.564	524.56
442.933	430.08
443.302	345.82
443.67	422.42
444.039	432.64
444.407	453.07
444.776	396.89
445.144	394.34
445.513	371.36
445.881	376.46
446.249	427.53
446.617	399.44
446.986	419.87
447.354	412.21
447.722	445.4
448.09	389.23
448.458	391.78
448.826	407.1
449.194	432.64
449.561	368.8
449.929	412.21
450.297	427.53
450.665	450.51
451.032	412.21
451.4	417.32
451.767	453.07
452.135	379.02
452.502	417.32
452.87	407.1
453.237	373.91
453.604	473.49
453.971	473.49
454.339	409.66
454.706	348.38
455.073	424.98
455.44	366.25
455.807	376.46
456.174	412.21
456.541	422.42
456.908	379.02
457.274	389.23
457.641	430.08
458.008	366.25
458.374	458.17
458.741	422.42
459.108	463.28
459.474	422.42
459.841	399.44
460.207	379.02
460.573	442.85
460.94	356.04
461.306	407.1
461.672	417.32
462.038	386.68
462.404	447.96
462.771	368.8
463.137	384.12
463.503	373.91
463.868	414.76
464.234	394.34
464.6	427.53
464.966	404.55
465.332	358.59
465.697	389.23
466.063	394.34
466.429	435.19
466.794	450.51
467.16	417.32
467.525	427.53
467.89	409.66
468.256	419.87
468.621	483.71
468.986	506.69
469.351	424.98
469.717	366.25
470.082	391.78
470.447	463.28
470.812	343.27
471.177	358.59
471.542	460.73
471.906	437.74
472.271	504.13
472.636	501.58
473.001	473.49
473.365	376.46
473.73	445.4
474.094	473.49
474.459	437.74
474.823	402
475.188	409.66
475.552	440.3
475.917	402
476.281	394.34
476.645	366.25
477.009	407.1
477.373	478.6
477.737	396.89
478.101	384.12
478.465	404.55
478.829	389.23
479.193	419.87
479.557	389.23
479.921	440.3
480.284	430.08
480.648	381.57
481.012	386.68
481.375	396.89
481.739	407.1
482.102	391.78
482.466	381.57
482.829	414.76
483.193	368.8
483.556	394.34
483.919	402
484.282	366.25
484.645	404.55
485.009	417.32
485.372	409.66
485.735	432.64
486.098	379.02
486.46	409.66
486.823	384.12
487.186	427.53
487.549	356.04
487.912	432.64
488.274	371.36
488.637	409.66
488.999	455.62
489.362	404.55
489.724	447.96
490.087	427.53
490.449	437.74
490.811	460.73
491.174	409.66
491.536	414.76
491.898	363.7
492.26	445.4
492.622	422.42
492.984	396.89
493.346	424.98
493.708	424.98
494.07	424.98
494.432	391.78
494.794	394.34
495.155	424.98
495.517	394.34
495.879	435.19
496.24	417.32
496.602	486.26
496.963	465.83
497.325	394.34
497.686	424.98
498.048	450.51
498.409	501.58
498.77	394.34
499.131	394.34
499.492	409.66
499.854	417.32
500.215	407.1
500.576	353.48
500.937	419.87
501.298	361.14
501.658	455.62
502.019	440.3
502.38	424.98
502.741	432.64
503.101	412.21
503.462	424.98
503.823	402
504.183	419.87
504.543	432.64
504.904	483.71
505.264	481.15
505.625	442.85
505.985	458.17
506.345	356.04
506.705	422.42
507.065	386.68
507.426	391.78
507.786	419.87
508.146	399.44
508.505	407.1
508.865	414.76
509.225	427.53
509.585	514.35
509.945	453.07
510.304	424.98
510.664	373.91
511.024	409.66
511.383	402
511.743	432.64
512.102	430.08
512.462	414.76
512.821	432.64
513.18	473.49
513.539	412.21
513.899	458.17
514.258	373.91
514.617	412.21
514.976	381.57
515.335	417.32
515.694	450.51
516.053	384.12
516.412	447.96
516.771	468.39
517.129	414.76
517.488	366.25
517.847	373.91
518.205	450.51
518.564	394.34
518.922	419.87
519.281	404.55
519.639	384.12
519.998	391.78
520.356	394.34
520.714	381.57
521.073	419.87
521.431	486.26
521.789	417.32
522.147	394.34
522.505	453.07
522.863	386.68
523.221	368.8
523.579	430.08
523.937	394.34
524.295	391.78
524.652	414.76
525.01	432.64
525.368	402
525.725	419.87
526.083	396.89
526.44	481.15
526.798	437.74
527.155	417.32
527.513	391.78
527.87	379.02
528.227	402
528.584	384.12
528.942	450.51
529.299	412.21
529.656	335.61
530.013	437.74
530.37	465.83
530.727	402
531.083	447.96
531.44	430.08
531.797	419.87
532.154	430.08
532.511	458.17
532.867	404.55
533.224	381.57
533.58	376.46
533.937	447.96
534.293	389.23
534.65	394.34
535.006	493.92
535.362	409.66
535.718	476.05
536.075	437.74
536.431	435.19
536.787	422.42
537.143	340.72
537.499	409.66
537.855	394.34
538.211	496.47
538.567	468.39
538.923	463.28
539.278	458.17
539.634	450.51
539.99	424.98
540.345	384.12
540.701	468.39
541.056	409.66
541.412	422.42
541.767	419.87
542.123	358.59
542.478	389.23
542.833	458.17
543.188	412.21
543.544	350.93
543.899	407.1
544.254	437.74
544.609	414.76
544.964	376.46
545.319	478.6
545.674	424.98
546.029	424.98
546.383	414.76
546.738	455.62
547.093	399.44
547.447	486.26
547.802	373.91
548.157	399.44
548.511	455.62
548.866	407.1
549.22	394.34
549.574	445.4
549.929	381.57
550.283	338.16
550.637	445.4
550.991	450.51
551.345	481.15
551.699	442.85
552.053	417.32
552.407	424.98
552.761	371.36
553.115	371.36
553.469	453.07
553.823	450.51
554.176	399.44
554.53	361.14
554.884	386.68
555.237	626.69
555.591	412.21
555.944	422.42
556.298	391.78
556.651	368.8
557.005	386.68
557.358	412.21
557.711	386.68
558.064	447.96
558.417	524.56
558.771	501.58
559.124	483.71
559.477	435.19
559.83	435.19
560.182	407.1
560.535	412.21
560.888	447.96
561.241	445.4
561.594	430.08
561.946	450.51
562.299	463.28
562.651	404.55
563.004	450.51
563.356	422.42
563.709	376.46
564.061	391.78
564.413	430.08
564.766	407.1
565.118	442.85
565.47	486.26
565.822	442.85
566.174	402
566.526	414.76
566.878	427.53
567.23	404.55
567.582	386.68
567.934	407.1
568.286	373.91
568.638	450.51
568.989	399.44
569.341	440.3
569.693	435.19
570.044	414.76
570.396	366.25
570.747	381.57
571.098	422.42
571.45	440.3
571.801	399.44
572.152	348.38
572.504	432.64
572.855	442.85
573.206	417.32
573.557	366.25
573.908	371.36
574.259	422.42
574.61	468.39
574.961	424.98
575.311	470.94
575.662	432.64
576.013	412.21
576.364	476.05
576.714	435.19
577.065	468.39
577.415	447.96
577.766	386.68
578.116	435.19
578.467	414.76
578.817	363.7
579.167	445.4
579.518	389.23
579.868	358.59
580.218	389.23
580.568	430.08
580.918	496.47
581.268	396.89
581.618	402
581.968	468.39
582.318	432.64
582.668	384.12
583.017	440.3
583.367	427.53
583.717	435.19
584.066	468.39
584.416	394.34
584.765	396.89
585.115	440.3
585.464	430.08
585.814	368.8
586.163	348.38
586.512	379.02
586.862	381.57
587.211	437.74
587.56	417.32
587.909	427.53
588.258	442.85
588.607	386.68
588.956	435.19
589.305	399.44
589.654	409.66
590.002	386.68
590.351	384.12
590.7	363.7
591.048	366.25
591.397	391.78
591.746	394.34
592.094	419.87
592.443	379.02
592.791	435.19
593.139	407.1
593.488	445.4
593.836	391.78
594.184	402
594.532	419.87
594.88	486.26
595.228	363.7
595.576	376.46
595.924	376.46
596.272	361.14
596.62	419.87
596.968	399.44
597.316	414.76
597.664	430.08
598.011	396.89
598.359	447.96
598.706	402
599.054	404.55
599.402	473.49
599.749	414.76
600.096	460.73
600.444	432.64
600.791	394.34
601.138	437.74
601.485	394.34
601.833	427.53
602.18	356.04
602.527	404.55
602.874	404.55
603.221	414.76
603.568	440.3
603.914	404.55
604.261	424.98
604.608	445.4
604.955	394.34
605.301	463.28
605.648	486.26
605.995	409.66
606.341	399.44
606.688	470.94
607.034	407.1
607.38	424.98
607.727	437.74
608.073	463.28
608.419	391.78
608.765	404.55
609.112	363.7
609.458	409.66
609.804	463.28
610.15	422.42
610.496	430.08
610.842	409.66
611.187	417.32
611.533	453.07
611.879	381.57
612.225	376.46
612.57	412.21
612.916	486.26
613.261	402
613.607	376.46
613.952	419.87
614.298	427.53
614.643	414.76
614.989	386.68
615.334	404.55
615.679	458.17
616.024	424.98
616.369	409.66
616.714	414.76
617.059	399.44
617.404	465.83
617.749	424.98
618.094	391.78
618.439	450.51
618.784	447.96
619.129	399.44
619.473	399.44
619.818	391.78
620.163	422.42
620.507	414.76
620.852	407.1
621.196	356.04
621.54	376.46
621.885	417.32
622.229	379.02
622.573	455.62
622.918	389.23
623.262	419.87
623.606	379.02
623.95	447.96
624.294	460.73
624.638	458.17
624.982	427.53
625.326	453.07
625.67	450.51
626.013	407.1
626.357	358.59
626.701	389.23
627.044	391.78
627.388	386.68
627.731	409.66
628.075	437.74
628.418	417.32
628.762	386.68
629.105	399.44
629.448	463.28
629.792	414.76
630.135	430.08
630.478	363.7
630.821	371.36
631.164	407.1
631.507	496.47
631.85	402
632.193	394.34
632.536	432.64
632.879	440.3
633.221	384.12
633.564	412.21
633.907	419.87
634.249	391.78
634.592	396.89
634.935	414.76
635.277	422.42
635.619	407.1
635.962	412.21
636.304	455.62
636.646	445.4
636.989	447.96
637.331	338.16
637.673	350.93
638.015	414.76
638.357	414.76
638.699	445.4
639.041	432.64
639.383	402
639.725	338.16
640.067	465.83
640.408	430.08
640.75	371.36
641.092	340.72
641.433	381.57
641.775	435.19
642.116	407.1
642.458	396.89
642.799	432.64
643.141	422.42
643.482	424.98
643.823	435.19
644.164	440.3
644.506	499.03
644.847	458.17
645.188	343.27
645.529	440.3
645.87	407.1
646.211	496.47
646.552	394.34
646.893	373.91
647.233	345.82
647.574	384.12
647.915	419.87
648.255	419.87
648.596	455.62
648.937	440.3
649.277	455.62
649.618	427.53
649.958	458.17
650.298	435.19
650.639	437.74
650.979	440.3
651.319	465.83
651.659	419.87
651.999	389.23
652.339	368.8
652.679	437.74
653.019	414.76
653.359	432.64
653.699	381.57
654.039	437.74
654.379	430.08
654.719	389.23
655.058	361.14
655.398	396.89
655.737	486.26
656.077	504.13
656.416	514.35
656.756	386.68
657.095	419.87
657.435	363.7
657.774	412.21
658.113	402
658.452	384.12
658.792	381.57
659.131	394.34
659.47	422.42
659.809	437.74
660.148	435.19
660.487	427.53
660.826	419.87
661.164	407.1
661.503	450.51
661.842	450.51
662.181	440.3
662.519	437.74
662.858	384.12
663.196	366.25
663.535	442.85
663.873	437.74
664.212	450.51
664.55	419.87
664.888	435.19
665.226	386.68
665.565	409.66
665.903	616.48
666.241	371.36
666.579	404.55
666.917	435.19
667.255	427.53
667.593	381.57
667.931	427.53
668.268	404.55
668.606	409.66
668.944	516.9
669.282	391.78
669.619	394.34
669.957	424.98
670.294	376.46
670.632	404.55
670.969	427.53
671.307	399.44
671.644	404.55
671.981	470.94
672.318	450.51
672.656	333.06
672.993	381.57
673.33	435.19
673.667	376.46
674.004	417.32
674.341	435.19
674.678	386.68
675.015	404.55
675.351	389.23
675.688	440.3
676.025	430.08
676.362	440.3
676.698	373.91
677.035	386.68
677.371	402
677.708	417.32
678.044	432.64
678.38	430.08
678.717	455.62
679.053	391.78
679.389	333.06
679.725	391.78
680.062	391.78
680.398	419.87
680.734	396.89
681.07	430.08
681.406	386.68
681.742	371.36
682.077	350.93
682.413	430.08
682.749	396.89
683.085	435.19
683.42	386.68
683.756	412.21
684.091	407.1
684.427	476.05
684.762	440.3
685.098	348.38
685.433	386.68
685.768	348.38
686.104	419.87
686.439	453.07
686.774	407.1
687.109	384.12
687.444	391.78
687.779	447.96
688.114	447.96
688.449	409.66
688.784	455.62
689.119	407.1
689.454	409.66
689.789	496.47
690.123	407.1
690.458	394.34
690.792	414.76
691.127	437.74
691.461	419.87
691.796	419.87
692.13	399.44
692.465	394.34
692.799	399.44
693.133	350.93
693.467	442.85
693.802	407.1
694.136	424.98
694.47	437.74
694.804	422.42
695.138	391.78
695.472	481.15
695.806	389.23
696.139	348.38
696.473	361.14
696.807	442.85
697.141	371.36
697.474	432.64
697.808	427.53
698.141	422.42
698.475	442.85
698.808	386.68
699.142	386.68
699.475	414.76
699.808	427.53
700.142	463.28
700.475	409.66
700.808	384.12
701.141	394.34
701.474	384.12
701.807	386.68
702.14	396.89
702.473	384.12
702.806	404.55
703.139	409.66
703.472	511.79
703.804	491.37
704.137	450.51
704.47	379.02
704.802	361.14
705.135	366.25
705.467	412.21
705.8	371.36
706.132	381.57
706.464	396.89
706.797	363.7
707.129	340.72
707.461	386.68
707.793	376.46
708.125	491.37
708.457	343.27
708.789	345.82
709.121	419.87
709.453	338.16
709.785	442.85
710.117	379.02
710.449	435.19
710.781	407.1
711.112	335.61
711.444	473.49
711.775	422.42
712.107	481.15
712.438	414.76
712.77	368.8
713.101	361.14
713.433	386.68
713.764	376.46
714.095	394.34
714.426	463.28
714.757	453.07
715.089	399.44
715.42	481.15
715.751	379.02
716.082	391.78
716.412	402
716.743	356.04
717.074	386.68
717.405	361.14
717.736	396.89
718.066	396.89
718.397	394.34
718.727	384.12
719.058	407.1
719.388	384.12
719.719	445.4
720.049	399.44
720.38	389.23
720.71	368.8
721.04	373.91
721.37	424.98
721.7	376.46
722.031	335.61
722.361	417.32
722.691	399.44
723.021	358.59
723.35	368.8
723.68	419.87
724.01	455.62
724.34	427.53
724.67	432.64
724.999	350.93
725.329	350.93
725.658	394.34
725.988	409.66
726.317	453.07
726.647	412.21
726.976	432.64
727.306	424.98
727.635	417.32
727.964	386.68
728.293	356.04
728.622	427.53
728.952	404.55
729.281	379.02
729.61	358.59
729.939	424.98
730.267	363.7
730.596	424.98
730.925	432.64
731.254	447.96
731.583	384.12
731.911	399.44
732.24	414.76
732.568	437.74
732.897	414.76
733.225	368.8
733.554	371.36
733.882	424.98
734.21	389.23
734.539	476.05
734.867	478.6
735.195	396.89
735.523	399.44
735.851	391.78
736.179	450.51
736.507	414.76
736.835	384.12
737.163	350.93
737.491	478.6
737.819	366.25
738.147	373.91
738.474	379.02
738.802	402
739.13	399.44
739.457	338.16
739.785	399.44
740.112	427.53
740.44	407.1
740.767	468.39
741.094	402
741.422	361.14
741.749	414.76
742.076	399.44
742.403	394.34
742.73	366.25
743.057	386.68
743.384	435.19
743.711	376.46
744.038	343.27
744.365	440.3
744.692	450.51
745.018	419.87
745.345	394.34
745.672	414.76
745.998	447.96
746.325	386.68
746.651	453.07
746.978	440.3
747.304	404.55
747.631	404.55
747.957	424.98
748.283	376.46
748.61	396.89
748.936	399.44
749.262	399.44
749.588	414.76
749.914	399.44
750.24	414.76
750.566	483.71
750.892	402
751.218	430.08
751.543	417.32
751.869	414.76
752.195	366.25
752.521	396.89
752.846	427.53
753.172	404.55
753.497	409.66
753.823	384.12
754.148	373.91
754.473	389.23
754.799	404.55
755.124	386.68
755.449	450.51
755.774	440.3
756.1	417.32
756.425	445.4
756.75	419.87
757.075	432.64
757.4	499.03
757.724	394.34
758.049	358.59
758.374	345.82
758.699	427.53
759.024	394.34
759.348	455.62
759.673	483.71
759.997	440.3
760.322	379.02
760.646	424.98
760.971	460.73
761.295	391.78
761.619	442.85
761.944	442.85
762.268	522.01
762.592	453.07
762.916	458.17
763.24	544.99
763.564	590.95
763.888	626.69
764.212	652.23
764.536	654.78
764.86	754.36
765.184	777.34
765.508	892.25
765.831	828.41
766.155	1060.77
766.478	930.55
766.802	846.29
767.126	785
767.449	866.71
767.772	741.6
768.096	800.32
768.419	695.64
768.742	598.61
769.066	593.5
769.389	613.93
769.712	585.84
770.035	652.23
770.358	726.28
770.681	856.5
771.004	1070.98
771.327	1234.4
771.65	1344.19
771.972	1510.16
772.295	1895.72
772.618	2145.95
772.941	2396.19
773.263	2631.1
773.586	2993.68
773.908	3356.26
774.231	3476.26
774.553	3478.82
774.875	3800.54
775.198	3940.98
775.52	3703.52
775.842	3486.48
776.164	3259.23
776.487	3077.94
776.809	2937.5
777.131	2968.14
777.453	2812.39
777.775	2643.86
778.096	2332.35
778.418	2059.14
778.74	1727.2
779.062	1443.78
779.384	1277.81
779.705	1122.05
780.027	1114.39
780.348	1106.73
780.67	1035.24
780.991	1168.01
781.313	1446.33
781.634	1755.29
781.955	2122.97
782.277	2551.94
782.598	3037.08
782.919	3361.36
783.24	3866.93
783.561	4387.82
783.882	4898.5
784.203	5084.89
784.524	5212.56
784.845	5383.64
785.166	5695.15
785.487	6338.6
785.807	6726.71
786.128	6591.39
786.449	6494.36
786.769	6226.25
787.09	6302.85
787.41	6394.78
787.731	6453.5
788.051	6517.34
788.372	6399.88
788.692	6055.18
789.012	5544.5
789.332	4719.76
789.653	4359.73
789.973	4214.19
790.293	3575.85
790.613	2784.3
790.933	2235.32
791.253	1890.62
791.573	1528.04
791.893	1305.89
792.212	961.19
792.532	894.8
792.852	907.57
793.171	1058.22
793.491	1339.09
793.811	1719.54
794.13	2176.6
794.45	2539.17
794.769	2973.25
795.088	3588.61
795.408	4124.82
795.727	5243.2
796.046	6491.8
796.365	7464.64
796.684	7612.74
797.004	7855.31
797.323	8307.26
797.642	9254.56
797.96	9101.36
798.279	8858.79
798.598	8664.73
798.917	8909.85
799.236	8491.1
799.554	8256.19
799.873	7888.5
800.192	7382.93
800.51	6923.32
800.829	6698.63
801.147	6096.03
801.466	5248.31
801.784	5005.74
802.102	4484.85
802.421	4055.88
802.739	3606.49
803.057	2978.36
803.375	2352.78
803.693	2066.8
804.011	1826.78
804.329	1612.3
804.647	1451.44
804.965	1147.58
805.283	973.95
805.601	859.05
805.918	705.85
806.236	728.83
806.554	749.26
806.871	841.18
807.189	1030.13
807.507	1193.54
807.824	1387.6
808.141	1556.12
808.459	1535.7
808.776	1854.87
809.093	1987.65
809.411	2028.5
809.728	2281.28
810.045	2470.23
810.362	2779.19
810.679	3116.24
810.996	3453.28
811.313	3736.71
811.63	3800.54
811.947	3797.99
812.264	3838.84
812.58	3843.95
812.897	3677.98
813.214	3568.19
813.53	3494.14
813.847	3882.25
814.163	3746.92
814.48	3205.61
814.796	3144.33
815.113	3093.26
815.429	2756.21
815.745	2544.28
816.061	2416.61
816.378	2232.77
816.694	1834.44
817.01	1676.13
817.326	1591.87
817.642	1420.8
817.958	1211.42
818.274	986.72
818.59	943.31
818.905	782.45
819.221	769.68
819.537	695.64
819.852	598.61
820.168	590.95
820.484	542.43
820.799	514.35
821.115	488.81
821.43	557.75
821.745	557.75
822.061	565.41
822.376	524.56
822.691	629.25
823.006	695.64
823.322	695.64
823.637	652.23
823.952	744.15
824.267	797.77
824.582	989.27
824.897	1040.34
825.211	1063.32
825.526	1032.68
825.841	1065.88
826.156	1088.86
826.47	1124.6
826.785	1178.22
827.1	1173.12
827.414	1229.29
827.729	1201.2
828.043	1270.15
828.357	1162.9
828.672	1293.13
828.986	1275.25
829.3	1252.27
829.614	1280.36
829.929	1134.82
830.243	1093.96
830.557	1002.04
830.871	1017.36
831.185	1004.59
831.499	882.03
831.812	871.82
832.126	841.18
832.44	843.73
832.754	713.51
833.067	744.15
833.381	698.19
833.695	708.4
834.008	624.14
834.322	562.86
834.635	619.03
834.948	539.88
835.262	550.09
835.575	442.85
835.888	447.96
836.201	481.15
836.515	516.9
836.828	537.33
837.141	478.6
837.454	409.66
837.767	417.32
838.08	501.58
838.392	409.66
838.705	455.62
839.018	463.28
839.331	414.76
839.643	447.96
839.956	325.4
840.269	404.55
840.581	407.1
840.894	424.98
841.206	501.58
841.519	598.61
841.831	476.05
842.143	527.11
842.455	506.69
842.768	483.71
843.08	557.75
843.392	486.26
843.704	532.22
844.016	455.62
844.328	458.17
844.64	491.37
844.952	486.26
845.263	463.28
845.575	552.65
845.887	522.01
846.199	560.31
846.51	552.65
846.822	519.45
847.133	381.57
847.445	432.64
847.756	460.73
848.068	427.53
848.379	450.51
848.69	493.92
849.002	499.03
849.313	473.49
849.624	384.12
849.935	391.78
850.246	442.85
850.557	409.66
850.868	432.64
851.179	430.08
851.49	412.21
851.801	412.21
852.112	468.39
852.422	483.71
852.733	437.74
853.044	458.17
853.354	402
853.665	384.12
853.975	458.17
854.286	379.02
854.596	322.84
854.906	366.25
855.217	358.59
855.527	419.87
855.837	391.78
856.147	379.02
856.458	394.34
856.768	356.04
857.078	412.21
857.388	376.46
857.698	381.57
858.007	389.23
858.317	460.73
858.627	361.14
858.937	404.55
859.246	412.21
859.556	366.25
859.866	402
860.175	412.21
860.485	389.23
860.794	402
861.104	409.66
861.413	371.36
861.722	402
862.032	412.21
862.341	335.61
862.65	366.25
862.959	422.42
863.268	386.68
863.577	396.89
863.886	399.44
864.195	440.3
864.504	304.97
864.813	379.02
865.122	394.34
865.43	402
865.739	386.68
866.048	389.23
866.356	386.68
866.665	435.19
866.973	432.64
867.282	394.34
867.59	483.71
867.899	430.08
868.207	358.59
868.515	391.78
868.823	460.73
869.132	407.1
869.44	427.53
869.748	422.42
870.056	432.64
870.364	402
870.672	440.3
870.98	435.19
871.288	371.36
871.595	432.64
871.903	407.1
872.211	437.74
872.518	435.19
872.826	417.32
873.134	386.68
873.441	470.94
873.749	460.73
874.056	327.95
874.363	363.7
874.671	389.23
874.978	407.1
875.285	381.57
875.592	422.42
875.9	404.55
876.207	376.46
876.514	419.87
876.821	478.6
877.128	427.53
877.435	389.23
877.741	404.55
878.048	371.36
878.355	399.44
878.662	379.02
878.968	407.1
879.275	322.84
879.582	381.57
879.888	330.5
880.195	478.6
880.501	384.12
880.807	384.12
881.114	335.61
881.42	330.5
881.726	373.91
882.032	322.84
882.339	358.59
882.645	338.16
882.951	386.68
883.257	399.44
883.563	358.59
883.869	361.14
884.174	361.14
884.48	327.95
884.786	315.18
885.092	361.14
885.397	396.89
885.703	386.68
886.009	366.25
886.314	409.66
886.62	417.32
886.925	399.44
887.231	435.19
887.536	424.98
887.841	350.93
888.146	424.98
888.452	442.85
888.757	338.16
889.062	399.44
889.367	376.46
889.672	440.3
889.977	361.14
890.282	391.78
890.587	335.61
890.892	368.8
891.196	463.28
891.501	386.68
891.806	453.07
892.11	363.7
892.415	381.57
892.72	407.1
893.024	394.34
893.328	412.21
893.633	384.12
893.937	356.04
894.242	358.59
894.546	399.44
894.85	381.57
895.154	465.83
895.458	389.23
895.762	407.1
896.066	356.04
896.37	442.85
896.674	399.44
896.978	356.04
897.282	343.27
897.586	409.66
897.89	402
898.193	402
898.497	379.02
898.801	414.76
899.104	376.46
899.408	417.32
899.711	391.78
900.014	381.57
900.318	409.66
900.621	450.51
900.924	399.44
901.228	335.61
901.531	386.68
901.834	356.04
902.137	402
902.44	345.82
902.743	327.95
903.046	358.59
903.349	394.34
903.652	402
903.955	343.27
904.257	402
904.56	386.68
904.863	445.4
905.165	361.14
905.468	414.76
905.77	407.1
906.073	343.27
906.375	312.63
906.678	335.61
906.98	404.55
907.282	419.87
907.584	419.87
907.887	394.34
908.189	353.48
908.491	353.48
908.793	427.53
909.095	402
909.397	465.83
909.699	419.87
910.001	389.23
910.302	389.23
910.604	427.53
910.906	363.7
911.208	356.04
911.509	381.57
911.811	493.92
912.112	430.08
912.414	358.59
912.715	455.62
913.017	432.64
913.318	442.85
913.619	361.14
913.92	386.68
914.222	343.27
914.523	340.72
914.824	335.61
915.125	356.04
915.426	358.59
915.727	424.98
916.028	371.36
916.329	414.76
916.63	419.87
916.93	478.6
917.231	394.34
917.532	427.53
917.832	384.12
918.133	376.46
918.434	424.98
918.734	394.34
919.034	409.66
919.335	424.98
919.635	409.66
919.935	389.23
920.236	373.91
920.536	315.18
920.836	424.98
921.136	402
921.436	473.49
921.736	430.08
922.036	450.51
922.336	440.3
922.636	447.96
922.936	386.68
923.236	417.32
923.535	386.68
923.835	350.93
924.135	465.83
924.434	379.02
924.734	358.59
925.033	409.66
925.333	340.72
925.632	353.48
925.932	350.93
926.231	396.89
926.53	371.36
926.83	422.42
927.129	424.98
927.428	386.68
927.727	394.34
928.026	396.89
928.325	447.96
928.624	348.38
928.923	358.59
929.222	394.34
929.52	404.55
929.819	476.05
930.118	453.07
930.417	427.53
930.715	379.02
931.014	394.34
931.312	470.94
931.611	417.32
931.909	368.8
932.207	396.89
932.506	409.66
932.804	386.68
933.102	486.26
933.401	422.42
933.699	368.8
933.997	345.82
934.295	333.06
934.593	399.44
934.891	350.93
935.189	417.32
935.487	455.62
935.784	379.02
936.082	417.32
936.38	407.1
936.677	424.98
936.975	419.87
937.273	468.39
937.57	384.12
937.868	373.91
938.165	394.34
938.463	447.96
938.76	363.7
939.057	373.91
939.354	394.34
939.652	338.16
939.949	368.8
940.246	445.4
940.543	358.59
940.84	455.62
941.137	412.21
941.434	396.89
941.731	450.51
942.028	366.25
942.324	379.02
942.621	391.78
942.918	327.95
943.214	315.18
943.511	435.19
943.807	402
944.104	432.64
944.4	376.46
944.697	379.02
944.993	430.08
945.29	361.14
945.586	412.21
945.882	379.02
946.178	437.74
946.474	417.32
946.77	442.85
947.066	422.42
947.362	478.6
947.658	394.34
947.954	343.27
948.25	437.74
948.546	386.68
948.842	333.06
949.137	440.3
949.433	445.4
949.729	424.98
950.024	435.19
950.32	358.59
950.615	376.46
950.91	399.44
951.206	368.8
951.501	389.23
951.796	417.32
952.092	389.23
952.387	402
952.682	458.17
952.977	396.89
953.272	430.08
953.567	417.32
953.862	442.85
954.157	384.12
954.452	424.98
954.747	402
955.041	379.02
955.336	432.64
955.631	363.7
955.925	419.87
956.22	412.21
956.514	386.68
956.809	376.46
957.103	399.44
957.398	345.82
957.692	391.78
957.986	384.12
958.281	373.91
958.575	350.93
958.869	460.73
959.163	391.78
959.457	424.98
959.751	348.38
960.045	493.92
960.339	437.74
960.633	407.1
960.927	399.44
961.221	340.72
961.514	407.1
961.808	435.19
962.102	384.12
962.395	340.72
962.689	442.85
962.982	379.02
963.276	435.19
963.569	430.08
963.862	361.14
964.156	325.4
964.449	407.1
964.742	348.38
965.035	422.42
965.328	356.04
965.622	384.12
965.915	363.7
966.208	391.78
966.5	391.78
966.793	389.23
967.086	476.05
967.379	379.02
967.672	447.96
967.964	412.21
968.257	437.74
968.55	353.48
968.842	386.68
969.135	384.12
969.427	356.04
969.72	414.76
970.012	430.08
970.304	450.51
970.597	389.23
970.889	424.98
971.181	358.59
971.473	325.4
971.765	381.57
972.057	458.17
972.349	384.12
972.641	345.82
972.933	373.91
973.225	386.68
973.517	373.91
973.809	368.8
974.1	353.48
974.392	465.83
974.684	394.34
974.975	389.23
975.267	376.46
975.558	419.87
975.85	399.44
976.141	379.02
976.432	417.32
976.724	476.05
977.015	468.39
977.306	427.53
977.597	463.28
977.888	404.55
978.179	496.47
978.47	394.34
978.761	409.66
979.052	376.46
979.343	430.08
979.634	419.87
979.925	409.66
980.215	427.53
980.506	481.15
980.797	453.07
981.087	427.53
981.378	386.68
981.668	379.02
981.959	407.1
982.249	412.21
982.54	424.98
982.83	445.4
983.12	396.89
983.41	435.19
983.701	422.42
983.991	353.48
984.281	470.94
984.571	419.87
984.861	373.91
985.151	376.46
985.441	379.02
985.73	458.17
986.02	350.93
986.31	394.34
986.6	435.19
986.889	402
987.179	440.3
987.469	422.42
987.758	404.55
988.048	409.66
988.337	381.57
988.626	478.6
988.916	345.82
989.205	440.3
989.494	407.1
989.783	350.93
990.073	363.7
990.362	419.87
990.651	417.32
990.94	460.73
991.229	432.64
991.518	445.4
991.806	391.78
992.095	348.38
992.384	407.1
992.673	417.32
992.961	450.51
993.25	412.21
993.539	396.89
993.827	404.55
994.116	404.55
994.404	381.57
994.692	350.93
994.981	348.38
995.269	373.91
995.557	419.87
995.846	432.64
996.134	366.25
996.422	366.25
996.71	384.12
996.998	417.32
997.286	376.46
997.574	348.38
997.862	379.02
998.15	409.66
998.437	389.23
998.725	379.02
999.013	458.17
999.3	402
999.588	407.1
999.876	402
1000.163	315.18
1000.45	373.91
1000.738	345.82
1001.025	424.98
1001.313	396.89
1001.6	343.27
1001.887	450.51
1002.174	399.44
1002.461	470.94
1002.748	476.05
1003.036	435.19
1003.322	381.57
1003.609	412.21
1003.896	407.1
1004.183	384.12
1004.47	363.7
1004.757	422.42
1005.043	340.72
1005.33	322.84
1005.617	379.02
1005.903	373.91
1006.19	376.46
1006.476	356.04
1006.763	419.87
1007.049	366.25
1007.335	358.59
1007.622	368.8
1007.908	358.59
1008.194	386.68
1008.48	414.76
1008.766	356.04
1009.053	356.04
1009.339	447.96
1009.625	409.66
1009.91	424.98
1010.196	440.3
1010.482	373.91
1010.768	343.27
1011.054	407.1
1011.339	404.55
1011.625	391.78
1011.911	389.23
1012.196	353.48
1012.482	348.38
1012.767	435.19
1013.052	417.32
1013.338	381.57
1013.623	404.55
1013.908	412.21
1014.194	394.34
1014.479	373.91
1014.764	356.04
1015.049	322.84
1015.334	402
1015.619	389.23
1015.904	435.19
1016.189	419.87
1016.474	424.98
1016.758	437.74
1017.043	402
1017.328	435.19
1017.613	402
1017.897	394.34
1018.182	404.55
1018.466	371.36
1018.751	440.3
1019.035	427.53
1019.32	389.23
1019.604	440.3
1019.888	463.28
1020.172	463.28
1020.457	463.28
