Data from 2025-12-03_xpw_interference_micrometer_631_FLMS141361__38__588.txt Node

Date: Wed Dec 03 15:54:08 MST 2025
User: james
Spectrometer: FLMS14136
Trigger mode: 0
Integration Time (sec): 1.000000E-1
Scans to average: 1
Electric dark correction enabled: true
Nonlinearity correction enabled: false
Boxcar width: 0
XAxis mode: Wavelengths
Number of Pixels in Spectrum: 2048
>>>>>Begin Spectral Data<<<<<
339.315	-21.54
339.697	-21.54
340.079	-21.54
340.461	-36.86
340.843	-98.15
341.225	-82.83
341.607	-82.83
341.989	-52.18
342.371	-116.02
342.752	-151.77
343.134	-6.22
343.516	-47.08
343.897	-11.33
344.279	-44.52
344.661	-11.33
345.042	26.97
345.423	78.04
345.805	121.45
346.186	83.14
346.567	106.12
346.949	190.39
347.33	134.21
347.711	182.73
348.092	228.69
348.473	210.81
348.854	215.92
349.235	284.86
349.616	320.61
349.997	266.99
350.378	256.77
350.758	274.65
351.139	330.82
351.52	358.91
351.9	361.46
352.281	320.61
352.661	310.4
353.042	358.91
353.422	346.14
353.803	445.72
354.183	384.44
354.563	399.76
354.943	361.46
355.324	417.64
355.704	404.87
356.084	318.06
356.464	351.25
356.844	399.76
357.224	432.96
357.603	379.34
357.983	361.46
358.363	333.38
358.743	341.04
359.122	379.34
359.502	397.21
359.882	343.59
360.261	409.98
360.641	415.08
361.02	315.5
361.399	335.93
361.779	328.27
362.158	381.89
362.537	389.55
362.916	320.61
363.296	361.46
363.675	325.72
364.054	348.7
364.433	366.57
364.812	287.41
365.19	348.7
365.569	366.57
365.948	315.5
366.327	315.5
366.705	279.75
367.084	315.5
367.463	284.86
367.841	356.36
368.22	310.4
368.598	394.66
368.977	295.07
369.355	335.93
369.733	341.04
370.111	389.55
370.49	328.27
370.868	289.97
371.246	335.93
371.624	343.59
372.002	341.04
372.38	417.64
372.758	379.34
373.136	402.32
373.513	312.95
373.891	435.51
374.269	330.82
374.646	351.25
375.024	338.48
375.402	343.59
375.779	384.44
376.157	348.7
376.534	358.91
376.911	366.57
377.289	384.44
377.666	389.55
378.043	412.53
378.42	402.32
378.797	371.68
379.175	384.44
379.552	320.61
379.929	328.27
380.305	353.8
380.682	374.23
381.059	348.7
381.436	415.08
381.813	387
382.189	297.63
382.566	333.38
382.943	361.46
383.319	328.27
383.696	361.46
384.072	381.89
384.448	404.87
384.825	369.12
385.201	325.72
385.577	358.91
385.953	353.8
386.329	369.12
386.706	351.25
387.082	417.64
387.458	330.82
387.834	384.44
388.209	366.57
388.585	384.44
388.961	300.18
389.337	374.23
389.713	404.87
390.088	356.36
390.464	343.59
390.839	384.44
391.215	348.7
391.59	384.44
391.966	341.04
392.341	415.08
392.716	369.12
393.092	376.78
393.467	348.7
393.842	430.4
394.217	389.55
394.592	371.68
394.967	438.06
395.342	335.93
395.717	295.07
396.092	330.82
396.467	343.59
396.841	351.25
397.216	361.46
397.591	397.21
397.965	343.59
398.34	297.63
398.714	353.8
399.089	353.8
399.463	381.89
399.838	343.59
400.212	402.32
400.586	328.27
400.961	399.76
401.335	420.19
401.709	348.7
402.083	394.66
402.457	402.32
402.831	366.57
403.205	361.46
403.579	392.1
403.953	379.34
404.326	379.34
404.7	335.93
405.074	318.06
405.447	333.38
405.821	387
406.195	351.25
406.568	417.64
406.942	438.06
407.315	353.8
407.688	356.36
408.062	394.66
408.435	361.46
408.808	438.06
409.181	399.76
409.554	397.21
409.927	323.16
410.3	379.34
410.673	376.78
411.046	392.1
411.419	361.46
411.792	374.23
412.165	330.82
412.537	438.06
412.91	389.55
413.283	384.44
413.655	369.12
414.028	384.44
414.4	407.42
414.773	376.78
415.145	292.52
415.517	371.68
415.889	364.02
416.262	356.36
416.634	402.32
417.006	415.08
417.378	409.98
417.75	379.34
418.122	376.78
418.494	343.59
418.866	384.44
419.238	351.25
419.609	305.29
419.981	315.5
420.353	364.02
420.725	409.98
421.096	430.4
421.468	392.1
421.839	392.1
422.211	440.62
422.582	417.64
422.953	422.74
423.325	384.44
423.696	379.34
424.067	366.57
424.438	407.42
424.809	343.59
425.18	364.02
425.551	392.1
425.922	397.21
426.293	397.21
426.664	409.98
427.035	399.76
427.406	358.91
427.776	356.36
428.147	387
428.518	422.74
428.888	484.02
429.259	443.17
429.629	392.1
429.999	407.42
430.37	323.16
430.74	389.55
431.11	425.3
431.481	369.12
431.851	402.32
432.221	409.98
432.591	335.93
432.961	348.7
433.331	376.78
433.701	399.76
434.071	356.36
434.441	407.42
434.81	366.57
435.18	361.46
435.55	371.68
435.919	351.25
436.289	341.04
436.658	427.85
437.028	399.76
437.397	328.27
437.767	374.23
438.136	440.62
438.505	371.68
438.875	325.72
439.244	478.92
439.613	379.34
439.982	397.21
440.351	379.34
440.72	453.38
441.089	407.42
441.458	402.32
441.827	402.32
442.196	381.89
442.564	476.36
442.933	412.53
443.302	389.55
443.67	358.91
444.039	420.19
444.407	374.23
444.776	409.98
445.144	366.57
445.513	335.93
445.881	448.28
446.249	364.02
446.617	366.57
446.986	387
447.354	463.6
447.722	407.42
448.09	364.02
448.458	371.68
448.826	438.06
449.194	384.44
449.561	356.36
449.929	364.02
450.297	348.7
450.665	392.1
451.032	384.44
451.4	417.64
451.767	409.98
452.135	366.57
452.502	318.06
452.87	394.66
453.237	402.32
453.604	448.28
453.971	351.25
454.339	376.78
454.706	384.44
455.073	374.23
455.44	381.89
455.807	384.44
456.174	335.93
456.541	415.08
456.908	364.02
457.274	384.44
457.641	379.34
458.008	356.36
458.374	358.91
458.741	369.12
459.108	343.59
459.474	371.68
459.841	356.36
460.207	407.42
460.573	392.1
460.94	338.48
461.306	369.12
461.672	422.74
462.038	371.68
462.404	389.55
462.771	417.64
463.137	381.89
463.503	461.04
463.868	374.23
464.234	387
464.6	381.89
464.966	404.87
465.332	438.06
465.697	420.19
466.063	438.06
466.429	481.47
466.794	374.23
467.16	417.64
467.525	387
467.89	453.38
468.256	448.28
468.621	404.87
468.986	504.45
469.351	422.74
469.717	374.23
470.082	315.5
470.447	364.02
470.812	471.26
471.177	394.66
471.542	415.08
471.906	376.78
472.271	420.19
472.636	335.93
473.001	394.66
473.365	415.08
473.73	356.36
474.094	448.28
474.459	453.38
474.823	409.98
475.188	333.38
475.552	361.46
475.917	381.89
476.281	374.23
476.645	366.57
477.009	394.66
477.373	399.76
477.737	404.87
478.101	420.19
478.465	524.88
478.829	430.4
479.193	397.21
479.557	374.23
479.921	361.46
480.284	389.55
480.648	407.42
481.012	346.14
481.375	450.83
481.739	374.23
482.102	448.28
482.466	351.25
482.829	473.81
483.193	407.42
483.556	425.3
483.919	397.21
484.282	384.44
484.645	409.98
485.009	402.32
485.372	450.83
485.735	366.57
486.098	461.04
486.46	417.64
486.823	409.98
487.186	371.68
487.549	402.32
487.912	376.78
488.274	392.1
488.637	478.92
488.999	328.27
489.362	404.87
489.724	417.64
490.087	364.02
490.449	407.42
490.811	402.32
491.174	404.87
491.536	361.46
491.898	338.48
492.26	407.42
492.622	399.76
492.984	338.48
493.346	409.98
493.708	412.53
494.07	397.21
494.432	341.04
494.794	351.25
495.155	468.7
495.517	379.34
495.879	381.89
496.24	425.3
496.602	399.76
496.963	412.53
497.325	392.1
497.686	404.87
498.048	440.62
498.409	458.49
498.77	430.4
499.131	404.87
499.492	389.55
499.854	366.57
500.215	407.42
500.576	407.42
500.937	415.08
501.298	361.46
501.658	366.57
502.019	432.96
502.38	417.64
502.741	343.59
503.101	364.02
503.462	346.14
503.823	415.08
504.183	407.42
504.543	435.51
504.904	455.94
505.264	484.02
505.625	389.55
505.985	438.06
506.345	409.98
506.705	440.62
507.065	450.83
507.426	371.68
507.786	351.25
508.146	366.57
508.505	432.96
508.865	458.49
509.225	430.4
509.585	537.65
509.945	402.32
510.304	420.19
510.664	397.21
511.024	432.96
511.383	394.66
511.743	425.3
512.102	376.78
512.462	417.64
512.821	435.51
513.18	399.76
513.539	399.76
513.899	407.42
514.258	417.64
514.617	343.59
514.976	341.04
515.335	448.28
515.694	417.64
516.053	412.53
516.412	476.36
516.771	409.98
517.129	453.38
517.488	402.32
517.847	348.7
518.205	353.8
518.564	376.78
518.922	415.08
519.281	399.76
519.639	427.85
519.998	389.55
520.356	458.49
520.714	415.08
521.073	402.32
521.431	341.04
521.789	417.64
522.147	381.89
522.505	430.4
522.863	450.83
523.221	455.94
523.579	427.85
523.937	384.44
524.295	346.14
524.652	402.32
525.01	394.66
525.368	351.25
525.725	425.3
526.083	422.74
526.44	328.27
526.798	389.55
527.155	399.76
527.513	394.66
527.87	461.04
528.227	412.53
528.584	387
528.942	346.14
529.299	348.7
529.656	356.36
530.013	343.59
530.37	438.06
530.727	412.53
531.083	392.1
531.44	422.74
531.797	358.91
532.154	366.57
532.511	389.55
532.867	312.95
533.224	409.98
533.58	402.32
533.937	392.1
534.293	417.64
534.65	369.12
535.006	478.92
535.362	440.62
535.718	404.87
536.075	407.42
536.431	366.57
536.787	351.25
537.143	356.36
537.499	394.66
537.855	397.21
538.211	351.25
538.567	450.83
538.923	443.17
539.278	399.76
539.634	407.42
539.99	399.76
540.345	346.14
540.701	358.91
541.056	371.68
541.412	376.78
541.767	381.89
542.123	422.74
542.478	438.06
542.833	420.19
543.188	392.1
543.544	369.12
543.899	415.08
544.254	422.74
544.609	443.17
544.964	374.23
545.319	387
545.674	358.91
546.029	358.91
546.383	389.55
546.738	430.4
547.093	397.21
547.447	381.89
547.802	376.78
548.157	443.17
548.511	412.53
548.866	417.64
549.22	507.01
549.574	356.36
549.929	353.8
550.283	374.23
550.637	397.21
550.991	374.23
551.345	443.17
551.699	409.98
552.053	404.87
552.407	387
552.761	364.02
553.115	440.62
553.469	438.06
553.823	409.98
554.176	412.53
554.53	394.66
554.884	361.46
555.237	560.63
555.591	453.38
555.944	379.34
556.298	364.02
556.651	364.02
557.005	443.17
557.358	399.76
557.711	376.78
558.064	374.23
558.417	384.44
558.771	445.72
559.124	453.38
559.477	371.68
559.83	364.02
560.182	328.27
560.535	358.91
560.888	358.91
561.241	415.08
561.594	420.19
561.946	387
562.299	387
562.651	366.57
563.004	440.62
563.356	392.1
563.709	346.14
564.061	417.64
564.413	432.96
564.766	387
565.118	399.76
565.47	397.21
565.822	412.53
566.174	399.76
566.526	427.85
566.878	371.68
567.23	392.1
567.582	353.8
567.934	387
568.286	397.21
568.638	358.91
568.989	369.12
569.341	455.94
569.693	392.1
570.044	427.85
570.396	432.96
570.747	381.89
571.098	399.76
571.45	415.08
571.801	422.74
572.152	353.8
572.504	415.08
572.855	432.96
573.206	491.68
573.557	481.47
573.908	323.16
574.259	425.3
574.61	353.8
574.961	366.57
575.311	387
575.662	420.19
576.013	369.12
576.364	440.62
576.714	371.68
577.065	387
577.415	407.42
577.766	432.96
578.116	330.82
578.467	394.66
578.817	402.32
579.167	422.74
579.518	394.66
579.868	348.7
580.218	435.51
580.568	394.66
580.918	420.19
581.268	369.12
581.618	341.04
581.968	389.55
582.318	348.7
582.668	366.57
583.017	427.85
583.367	440.62
583.717	330.82
584.066	381.89
584.416	407.42
584.765	351.25
585.115	412.53
585.464	374.23
585.814	379.34
586.163	346.14
586.512	425.3
586.862	353.8
587.211	292.52
587.56	397.21
587.909	432.96
588.258	415.08
588.607	374.23
588.956	389.55
589.305	330.82
589.654	364.02
590.002	364.02
590.351	369.12
590.7	371.68
591.048	343.59
591.397	399.76
591.746	420.19
592.094	392.1
592.443	435.51
592.791	343.59
593.139	407.42
593.488	376.78
593.836	399.76
594.184	404.87
594.532	440.62
594.88	458.49
595.228	376.78
595.576	361.46
595.924	404.87
596.272	427.85
596.62	407.42
596.968	371.68
597.316	425.3
597.664	450.83
598.011	438.06
598.359	412.53
598.706	394.66
599.054	384.44
599.402	376.78
599.749	392.1
600.096	430.4
600.444	389.55
600.791	389.55
601.138	376.78
601.485	379.34
601.833	427.85
602.18	381.89
602.527	443.17
602.874	407.42
603.221	438.06
603.568	448.28
603.914	404.87
604.261	369.12
604.608	351.25
604.955	366.57
605.301	392.1
605.648	389.55
605.995	412.53
606.341	409.98
606.688	376.78
607.034	348.7
607.38	392.1
607.727	409.98
608.073	402.32
608.419	448.28
608.765	432.96
609.112	455.94
609.458	402.32
609.804	409.98
610.15	376.78
610.496	364.02
610.842	409.98
611.187	307.84
611.533	366.57
611.879	412.53
612.225	420.19
612.57	366.57
612.916	356.36
613.261	448.28
613.607	399.76
613.952	356.36
614.298	443.17
614.643	427.85
614.989	346.14
615.334	351.25
615.679	468.7
616.024	399.76
616.369	427.85
616.714	371.68
617.059	409.98
617.404	407.42
617.749	397.21
618.094	392.1
618.439	404.87
618.784	371.68
619.129	366.57
619.473	366.57
619.818	435.51
620.163	404.87
620.507	379.34
620.852	371.68
621.196	402.32
621.54	353.8
621.885	348.7
622.229	412.53
622.573	353.8
622.918	384.44
623.262	404.87
623.606	361.46
623.95	328.27
624.294	379.34
624.638	394.66
624.982	435.51
625.326	348.7
625.67	366.57
626.013	335.93
626.357	409.98
626.701	369.12
627.044	366.57
627.388	341.04
627.731	356.36
628.075	392.1
628.418	453.38
628.762	381.89
629.105	358.91
629.448	387
629.792	425.3
630.135	353.8
630.478	399.76
630.821	381.89
631.164	412.53
631.507	369.12
631.85	440.62
632.193	381.89
632.536	409.98
632.879	404.87
633.221	376.78
633.564	397.21
633.907	404.87
634.249	381.89
634.592	374.23
634.935	417.64
635.277	432.96
635.619	369.12
635.962	364.02
636.304	369.12
636.646	366.57
636.989	409.98
637.331	392.1
637.673	358.91
638.015	412.53
638.357	361.46
638.699	341.04
639.041	374.23
639.383	458.49
639.725	425.3
640.067	333.38
640.408	399.76
640.75	450.83
641.092	392.1
641.433	384.44
641.775	369.12
642.116	335.93
642.458	448.28
642.799	466.15
643.141	440.62
643.482	366.57
643.823	407.42
644.164	412.53
644.506	471.26
644.847	458.49
645.188	381.89
645.529	407.42
645.87	435.51
646.211	366.57
646.552	392.1
646.893	358.91
647.233	402.32
647.574	374.23
647.915	371.68
648.255	430.4
648.596	300.18
648.937	399.76
649.277	374.23
649.618	348.7
649.958	387
650.298	348.7
650.639	422.74
650.979	384.44
651.319	356.36
651.659	376.78
651.999	412.53
652.339	415.08
652.679	353.8
653.019	341.04
653.359	366.57
653.699	369.12
654.039	379.34
654.379	440.62
654.719	399.76
655.058	392.1
655.398	427.85
655.737	448.28
656.077	432.96
656.416	397.21
656.756	379.34
657.095	376.78
657.435	392.1
657.774	440.62
658.113	346.14
658.452	366.57
658.792	412.53
659.131	389.55
659.47	351.25
659.809	387
660.148	387
660.487	394.66
660.826	458.49
661.164	369.12
661.503	366.57
661.842	381.89
662.181	353.8
662.519	376.78
662.858	412.53
663.196	341.04
663.535	394.66
663.873	364.02
664.212	351.25
664.55	369.12
664.888	369.12
665.226	364.02
665.565	374.23
665.903	614.25
666.241	387
666.579	381.89
666.917	318.06
667.255	369.12
667.593	422.74
667.931	443.17
668.268	384.44
668.606	392.1
668.944	417.64
669.282	389.55
669.619	399.76
669.957	394.66
670.294	353.8
670.632	392.1
670.969	448.28
671.307	361.46
671.644	312.95
671.981	358.91
672.318	399.76
672.656	412.53
672.993	440.62
673.33	394.66
673.667	356.36
674.004	392.1
674.341	394.66
674.678	351.25
675.015	384.44
675.351	407.42
675.688	358.91
676.025	374.23
676.362	379.34
676.698	399.76
677.035	407.42
677.371	346.14
677.708	399.76
678.044	397.21
678.38	315.5
678.717	330.82
679.053	443.17
679.389	392.1
679.725	356.36
680.062	341.04
680.398	384.44
680.734	348.7
681.07	399.76
681.406	376.78
681.742	415.08
682.077	389.55
682.413	361.46
682.749	417.64
683.085	376.78
683.42	384.44
683.756	320.61
684.091	394.66
684.427	387
684.762	320.61
685.098	374.23
685.433	384.44
685.768	404.87
686.104	376.78
686.439	389.55
686.774	450.83
687.109	358.91
687.444	333.38
687.779	371.68
688.114	412.53
688.449	387
688.784	387
689.119	328.27
689.454	333.38
689.789	348.7
690.123	335.93
690.458	381.89
690.792	432.96
691.127	358.91
691.461	366.57
691.796	366.57
692.13	404.87
692.465	343.59
692.799	397.21
693.133	422.74
693.467	366.57
693.802	379.34
694.136	430.4
694.47	443.17
694.804	399.76
695.138	397.21
695.472	468.7
695.806	366.57
696.139	379.34
696.473	427.85
696.807	407.42
697.141	412.53
697.474	361.46
697.808	381.89
698.141	438.06
698.475	371.68
698.808	389.55
699.142	358.91
699.475	307.84
699.808	356.36
700.142	435.51
700.475	351.25
700.808	397.21
701.141	432.96
701.474	376.78
701.807	409.98
702.14	353.8
702.473	381.89
702.806	440.62
703.139	361.46
703.472	381.89
703.804	364.02
704.137	415.08
704.47	387
704.802	369.12
705.135	369.12
705.467	409.98
705.8	384.44
706.132	376.78
706.464	381.89
706.797	356.36
707.129	422.74
707.461	358.91
707.793	397.21
708.125	364.02
708.457	402.32
708.789	389.55
709.121	351.25
709.453	341.04
709.785	338.48
710.117	374.23
710.449	320.61
710.781	425.3
711.112	430.4
711.444	381.89
711.775	430.4
712.107	348.7
712.438	348.7
712.77	381.89
713.101	369.12
713.433	371.68
713.764	407.42
714.095	407.42
714.426	420.19
714.757	387
715.089	302.73
715.42	351.25
715.751	376.78
716.082	402.32
716.412	330.82
716.743	374.23
717.074	353.8
717.405	361.46
717.736	435.51
718.066	389.55
718.397	338.48
718.727	333.38
719.058	379.34
719.388	343.59
719.719	335.93
720.049	397.21
720.38	384.44
720.71	417.64
721.04	348.7
721.37	361.46
721.7	387
722.031	415.08
722.361	366.57
722.691	356.36
723.021	415.08
723.35	341.04
723.68	343.59
724.01	366.57
724.34	412.53
724.67	384.44
724.999	312.95
725.329	338.48
725.658	356.36
725.988	394.66
726.317	425.3
726.647	389.55
726.976	427.85
727.306	361.46
727.635	394.66
727.964	333.38
728.293	341.04
728.622	402.32
728.952	404.87
729.281	399.76
729.61	338.48
729.939	374.23
730.267	374.23
730.596	420.19
730.925	438.06
731.254	356.36
731.583	384.44
731.911	384.44
732.24	397.21
732.568	366.57
732.897	448.28
733.225	404.87
733.554	430.4
733.882	412.53
734.21	417.64
734.539	422.74
734.867	358.91
735.195	427.85
735.523	374.23
735.851	412.53
736.179	374.23
736.507	387
736.835	325.72
737.163	364.02
737.491	369.12
737.819	435.51
738.147	366.57
738.474	325.72
738.802	450.83
739.13	397.21
739.457	374.23
739.785	397.21
740.112	417.64
740.44	325.72
740.767	432.96
741.094	358.91
741.422	397.21
741.749	427.85
742.076	366.57
742.403	364.02
742.73	422.74
743.057	417.64
743.384	366.57
743.711	376.78
744.038	318.06
744.365	425.3
744.692	443.17
745.018	376.78
745.345	478.92
745.672	392.1
745.998	348.7
746.325	435.51
746.651	346.14
746.978	392.1
747.304	404.87
747.631	366.57
747.957	379.34
748.283	371.68
748.61	343.59
748.936	420.19
749.262	453.38
749.588	397.21
749.914	358.91
750.24	384.44
750.566	438.06
750.892	348.7
751.218	381.89
751.543	376.78
751.869	318.06
752.195	351.25
752.521	417.64
752.846	384.44
753.172	381.89
753.497	346.14
753.823	277.2
754.148	305.29
754.473	384.44
754.799	353.8
755.124	376.78
755.449	381.89
755.774	427.85
756.1	435.51
756.425	343.59
756.75	387
757.075	384.44
757.4	545.31
757.724	435.51
758.049	364.02
758.374	402.32
758.699	374.23
759.024	425.3
759.348	404.87
759.673	353.8
759.997	420.19
760.322	353.8
760.646	415.08
760.971	379.34
761.295	430.4
761.619	417.64
761.944	440.62
762.268	455.94
762.592	412.53
762.916	468.7
763.24	529.99
763.564	555.52
763.888	629.57
764.212	598.93
764.536	647.44
764.86	754.68
765.184	823.62
765.508	823.62
765.831	864.48
766.155	1068.75
766.478	872.14
766.802	762.34
767.126	808.3
767.449	772.56
767.772	782.77
768.096	711.28
768.419	624.46
768.742	581.05
769.066	598.93
769.389	614.25
769.712	604.03
770.035	657.65
770.358	724.04
770.681	874.69
771.004	1112.16
771.327	1244.93
771.65	1436.43
771.972	1633.04
772.295	1947.11
772.618	2312.24
772.941	2644.18
773.263	2886.75
773.586	3323.38
773.908	3683.41
774.231	3770.22
774.553	3793.2
774.875	3948.96
775.198	4025.56
775.52	3647.66
775.842	3420.41
776.164	3274.87
776.487	3172.73
776.809	3139.54
777.131	2853.56
777.453	2577.79
777.775	2350.54
778.096	2370.97
778.418	1957.32
778.74	1610.06
779.062	1262.81
779.384	1163.22
779.705	1025.34
780.027	935.97
780.348	956.4
780.67	1119.82
780.991	1367.49
781.313	1533.46
781.634	2059.46
781.955	2427.15
782.277	2917.39
782.598	3379.56
782.919	3920.87
783.24	4240.04
783.561	4914.14
783.882	5057.12
784.203	5498.86
784.524	5692.92
784.845	5759.3
785.166	6065.71
785.487	6806.19
785.807	6977.26
786.128	6905.77
786.449	6739.8
786.769	6479.36
787.09	6277.64
787.41	6668.31
787.731	6530.42
788.051	6525.32
788.372	6435.95
788.692	5971.23
789.012	5248.63
789.332	4434.1
789.653	4217.06
789.973	4002.58
790.293	3279.97
790.613	2363.31
790.933	1883.28
791.253	1592.19
791.573	1367.49
791.893	994.7
792.212	879.8
792.532	844.05
792.852	974.27
793.171	1188.76
793.491	1594.74
793.811	1990.52
794.13	2442.47
794.45	2784.62
794.769	3356.57
795.088	4125.14
795.408	4640.92
795.727	5897.19
796.046	7145.79
796.365	8259.06
796.684	8384.18
797.004	8320.34
797.323	9045.5
797.642	10082.17
797.96	9704.27
798.279	9257.43
798.598	9101.68
798.917	9219.13
799.236	8736.54
799.554	8598.66
799.873	7911.8
800.192	7424.11
800.51	7171.32
800.829	6650.43
801.147	5932.93
801.466	5138.83
801.784	5034.14
802.102	4365.16
802.421	3711.49
802.739	3405.09
803.057	2797.39
803.375	2138.61
803.693	1809.23
804.011	1620.28
804.329	1395.58
804.647	1158.12
804.965	890.01
805.283	810.86
805.601	772.56
805.918	767.45
806.236	782.77
806.554	851.71
806.871	925.76
807.189	1084.07
807.507	1362.39
807.824	1676.45
808.141	1814.33
808.459	1753.05
808.776	2056.91
809.093	2176.91
809.411	2317.35
809.728	2544.6
810.045	2646.74
810.362	3091.02
810.679	3389.77
810.996	3563.4
811.313	3905.55
811.63	4012.79
811.947	3892.78
812.264	4079.18
812.58	3966.83
812.897	3775.33
813.214	3629.79
813.53	3548.08
813.847	3841.72
814.163	3770.22
814.48	3305.51
814.796	3045.06
815.113	3024.64
815.429	2853.56
815.745	2552.26
816.061	2411.83
816.378	2062.01
816.694	1776.03
817.01	1569.21
817.326	1490.06
817.642	1321.53
817.958	1137.69
818.274	1004.91
818.59	854.26
818.905	729.15
819.221	670.42
819.537	685.74
819.852	552.97
820.168	507.01
820.484	486.58
820.799	471.26
821.115	540.2
821.43	627.01
821.745	578.5
822.061	588.71
822.376	698.51
822.691	739.36
823.006	731.7
823.322	757.24
823.637	813.41
823.952	798.09
824.267	915.55
824.582	981.93
824.897	1117.26
825.211	1145.35
825.526	1137.69
825.841	1160.67
826.156	1198.97
826.47	1186.2
826.785	1173.44
827.1	1252.59
827.414	1206.63
827.729	1262.81
828.043	1224.5
828.357	1311.32
828.672	1175.99
828.986	1173.44
829.3	1313.87
829.614	1198.97
829.929	1303.66
830.243	1091.73
830.557	1035.55
830.871	930.87
831.185	890.01
831.499	869.58
831.812	846.6
832.126	869.58
832.44	795.54
832.754	790.43
833.067	785.32
833.381	724.04
833.695	713.83
834.008	627.01
834.322	598.93
834.635	621.91
834.948	601.48
835.262	489.13
835.575	461.04
835.888	527.43
836.201	402.32
836.515	468.7
836.828	438.06
837.141	366.57
837.454	415.08
837.767	409.98
838.08	422.74
838.392	397.21
838.705	402.32
839.018	394.66
839.331	402.32
839.643	379.34
839.956	453.38
840.269	394.66
840.581	389.55
840.894	471.26
841.206	458.49
841.519	578.5
841.831	461.04
842.143	458.49
842.455	422.74
842.768	489.13
843.08	430.4
843.392	484.02
843.704	499.34
844.016	501.9
844.328	448.28
844.64	463.6
844.952	542.75
845.263	519.77
845.575	448.28
845.887	484.02
846.199	491.68
846.51	417.64
846.822	463.6
847.133	453.38
847.445	374.23
847.756	448.28
848.068	427.85
848.379	420.19
848.69	435.51
849.002	404.87
849.313	412.53
849.624	392.1
849.935	402.32
850.246	353.8
850.557	384.44
850.868	404.87
851.179	461.04
851.49	420.19
851.801	404.87
852.112	374.23
852.422	338.48
852.733	346.14
853.044	381.89
853.354	353.8
853.665	394.66
853.975	376.78
854.286	376.78
854.596	358.91
854.906	399.76
855.217	389.55
855.527	366.57
855.837	387
856.147	407.42
856.458	300.18
856.768	279.75
857.078	361.46
857.388	402.32
857.698	351.25
858.007	369.12
858.317	409.98
858.627	333.38
858.937	358.91
859.246	364.02
859.556	315.5
859.866	381.89
860.175	409.98
860.485	448.28
860.794	409.98
861.104	397.21
861.413	379.34
861.722	371.68
862.032	402.32
862.341	381.89
862.65	381.89
862.959	361.46
863.268	409.98
863.577	420.19
863.886	358.91
864.195	384.44
864.504	364.02
864.813	335.93
865.122	325.72
865.43	402.32
865.739	353.8
866.048	389.55
866.356	438.06
866.665	366.57
866.973	399.76
867.282	384.44
867.59	376.78
867.899	330.82
868.207	432.96
868.515	325.72
868.823	420.19
869.132	356.36
869.44	364.02
869.748	425.3
870.056	376.78
870.364	356.36
870.672	387
870.98	379.34
871.288	389.55
871.595	371.68
871.903	407.42
872.211	381.89
872.518	376.78
872.826	432.96
873.134	358.91
873.441	366.57
873.749	415.08
874.056	387
874.363	353.8
874.671	346.14
874.978	412.53
875.285	374.23
875.592	427.85
875.9	358.91
876.207	356.36
876.514	369.12
876.821	312.95
877.128	295.07
877.435	366.57
877.741	443.17
878.048	381.89
878.355	399.76
878.662	371.68
878.968	376.78
879.275	440.62
879.582	348.7
879.888	346.14
880.195	272.09
880.501	392.1
880.807	443.17
881.114	397.21
881.42	335.93
881.726	379.34
882.032	466.15
882.339	404.87
882.645	387
882.951	407.42
883.257	432.96
883.563	328.27
883.869	343.59
884.174	330.82
884.48	351.25
884.786	409.98
885.092	330.82
885.397	384.44
885.703	369.12
886.009	364.02
886.314	387
886.62	415.08
886.925	358.91
887.231	346.14
887.536	379.34
887.841	325.72
888.146	318.06
888.452	335.93
888.757	366.57
889.062	356.36
889.367	341.04
889.672	376.78
889.977	412.53
890.282	392.1
890.587	356.36
890.892	374.23
891.196	427.85
891.501	379.34
891.806	384.44
892.11	402.32
892.415	384.44
892.72	381.89
893.024	417.64
893.328	420.19
893.633	369.12
893.937	353.8
894.242	389.55
894.546	371.68
894.85	371.68
895.154	392.1
895.458	374.23
895.762	422.74
896.066	430.4
896.37	374.23
896.674	328.27
896.978	364.02
897.282	312.95
897.586	300.18
897.89	399.76
898.193	310.4
898.497	374.23
898.801	461.04
899.104	430.4
899.408	402.32
899.711	379.34
900.014	358.91
900.318	346.14
900.621	397.21
900.924	353.8
901.228	356.36
901.531	371.68
901.834	356.36
902.137	310.4
902.44	384.44
902.743	366.57
903.046	384.44
903.349	417.64
903.652	348.7
903.955	394.66
904.257	397.21
904.56	420.19
904.863	381.89
905.165	320.61
905.468	404.87
905.77	427.85
906.073	412.53
906.375	364.02
906.678	394.66
906.98	379.34
907.282	351.25
907.584	399.76
907.887	455.94
908.189	399.76
908.491	335.93
908.793	328.27
909.095	341.04
909.397	374.23
909.699	381.89
910.001	356.36
910.302	432.96
910.604	374.23
910.906	374.23
911.208	425.3
911.509	392.1
911.811	389.55
912.112	399.76
912.414	379.34
912.715	425.3
913.017	394.66
913.318	438.06
913.619	366.57
913.92	371.68
914.222	379.34
914.523	358.91
914.824	407.42
915.125	330.82
915.426	338.48
915.727	325.72
916.028	448.28
916.329	387
916.63	348.7
916.93	443.17
917.231	412.53
917.532	376.78
917.832	402.32
918.133	300.18
918.434	338.48
918.734	338.48
919.034	356.36
919.335	420.19
919.635	399.76
919.935	412.53
920.236	448.28
920.536	371.68
920.836	412.53
921.136	341.04
921.436	491.68
921.736	366.57
922.036	415.08
922.336	425.3
922.636	420.19
922.936	422.74
923.236	443.17
923.535	379.34
923.835	379.34
924.135	402.32
924.434	384.44
924.734	384.44
925.033	443.17
925.333	438.06
925.632	338.48
925.932	415.08
926.231	384.44
926.53	420.19
926.83	412.53
927.129	356.36
927.428	343.59
927.727	389.55
928.026	305.29
928.325	399.76
928.624	392.1
928.923	369.12
929.222	330.82
929.52	392.1
929.819	412.53
930.118	384.44
930.417	417.64
930.715	374.23
931.014	379.34
931.312	379.34
931.611	374.23
931.909	387
932.207	358.91
932.506	402.32
932.804	387
933.102	374.23
933.401	422.74
933.699	305.29
933.997	369.12
934.295	335.93
934.593	353.8
934.891	328.27
935.189	407.42
935.487	432.96
935.784	397.21
936.082	404.87
936.38	407.42
936.677	371.68
936.975	389.55
937.273	361.46
937.57	348.7
937.868	402.32
938.165	364.02
938.463	341.04
938.76	374.23
939.057	392.1
939.354	333.38
939.652	348.7
939.949	374.23
940.246	343.59
940.543	348.7
940.84	409.98
941.137	305.29
941.434	404.87
941.731	353.8
942.028	361.46
942.324	330.82
942.621	397.21
942.918	348.7
943.214	338.48
943.511	297.63
943.807	369.12
944.104	335.93
944.4	407.42
944.697	351.25
944.993	387
945.29	381.89
945.586	330.82
945.882	381.89
946.178	389.55
946.474	351.25
946.77	374.23
947.066	333.38
947.362	369.12
947.658	346.14
947.954	379.34
948.25	307.84
948.546	369.12
948.842	320.61
949.137	325.72
949.433	315.5
949.729	376.78
950.024	351.25
950.32	415.08
950.615	351.25
950.91	412.53
951.206	376.78
951.501	364.02
951.796	389.55
952.092	384.44
952.387	358.91
952.682	397.21
952.977	374.23
953.272	361.46
953.567	318.06
953.862	356.36
954.157	356.36
954.452	389.55
954.747	404.87
955.041	392.1
955.336	356.36
955.631	320.61
955.925	422.74
956.22	369.12
956.514	307.84
956.809	376.78
957.103	399.76
957.398	425.3
957.692	387
957.986	443.17
958.281	335.93
958.575	335.93
958.869	389.55
959.163	310.4
959.457	343.59
959.751	427.85
960.045	361.46
960.339	417.64
960.633	440.62
960.927	415.08
961.221	397.21
961.514	409.98
961.808	351.25
962.102	422.74
962.395	384.44
962.689	371.68
962.982	387
963.276	369.12
963.569	404.87
963.862	348.7
964.156	312.95
964.449	315.5
964.742	376.78
965.035	333.38
965.328	325.72
965.622	399.76
965.915	366.57
966.208	381.89
966.5	384.44
966.793	366.57
967.086	361.46
967.379	351.25
967.672	384.44
967.964	374.23
968.257	269.54
968.55	399.76
968.842	369.12
969.135	364.02
969.427	348.7
969.72	379.34
970.012	422.74
970.304	432.96
970.597	369.12
970.889	376.78
971.181	381.89
971.473	312.95
971.765	394.66
972.057	341.04
972.349	356.36
972.641	318.06
972.933	389.55
973.225	312.95
973.517	394.66
973.809	422.74
974.1	346.14
974.392	330.82
974.684	394.66
974.975	430.4
975.267	369.12
975.558	392.1
975.85	394.66
976.141	364.02
976.432	361.46
976.724	397.21
977.015	364.02
977.306	409.98
977.597	384.44
977.888	409.98
978.179	305.29
978.47	384.44
978.761	366.57
979.052	358.91
979.343	417.64
979.634	325.72
979.925	369.12
980.215	407.42
980.506	397.21
980.797	320.61
981.087	371.68
981.378	310.4
981.668	335.93
981.959	402.32
982.249	358.91
982.54	399.76
982.83	323.16
983.12	387
983.41	312.95
983.701	315.5
983.991	356.36
984.281	389.55
984.571	361.46
984.861	374.23
985.151	412.53
985.441	422.74
985.73	335.93
986.02	364.02
986.31	374.23
986.6	374.23
986.889	364.02
987.179	448.28
987.469	409.98
987.758	369.12
988.048	369.12
988.337	374.23
988.626	356.36
988.916	310.4
989.205	320.61
989.494	361.46
989.783	379.34
990.073	427.85
990.362	384.44
990.651	389.55
990.94	379.34
991.229	366.57
991.518	387
991.806	333.38
992.095	356.36
992.384	412.53
992.673	422.74
992.961	335.93
993.25	364.02
993.539	315.5
993.827	379.34
994.116	389.55
994.404	371.68
994.692	287.41
994.981	351.25
995.269	397.21
995.557	371.68
995.846	379.34
996.134	397.21
996.422	369.12
996.71	381.89
996.998	374.23
997.286	381.89
997.574	366.57
997.862	392.1
998.15	399.76
998.437	404.87
998.725	328.27
999.013	371.68
999.3	374.23
999.588	463.6
999.876	409.98
1000.163	361.46
1000.45	348.7
1000.738	389.55
1001.025	384.44
1001.313	356.36
1001.6	338.48
1001.887	438.06
1002.174	407.42
1002.461	476.36
1002.748	438.06
1003.036	387
1003.322	346.14
1003.609	387
1003.896	338.48
1004.183	361.46
1004.47	346.14
1004.757	366.57
1005.043	366.57
1005.33	407.42
1005.617	364.02
1005.903	325.72
1006.19	335.93
1006.476	381.89
1006.763	376.78
1007.049	343.59
1007.335	310.4
1007.622	300.18
1007.908	323.16
1008.194	387
1008.48	425.3
1008.766	399.76
1009.053	404.87
1009.339	343.59
1009.625	335.93
1009.91	333.38
1010.196	341.04
1010.482	389.55
1010.768	333.38
1011.054	371.68
1011.339	348.7
1011.625	384.44
1011.911	407.42
1012.196	425.3
1012.482	343.59
1012.767	402.32
1013.052	374.23
1013.338	335.93
1013.623	384.44
1013.908	358.91
1014.194	425.3
1014.479	358.91
1014.764	361.46
1015.049	379.34
1015.334	376.78
1015.619	394.66
1015.904	371.68
1016.189	364.02
1016.474	381.89
1016.758	402.32
1017.043	435.51
1017.328	364.02
1017.613	323.16
1017.897	404.87
1018.182	430.4
1018.466	358.91
1018.751	353.8
1019.035	430.4
1019.32	364.02
1019.604	397.21
1019.888	392.1
1020.172	392.1
1020.457	392.1
