Data from 2025-12-03_xpw_interference_micrometer_631_FLMS141361__56__606.txt Node

Date: Wed Dec 03 15:54:10 MST 2025
User: james
Spectrometer: FLMS14136
Trigger mode: 0
Integration Time (sec): 1.000000E-1
Scans to average: 1
Electric dark correction enabled: true
Nonlinearity correction enabled: false
Boxcar width: 0
XAxis mode: Wavelengths
Number of Pixels in Spectrum: 2048
>>>>>Begin Spectral Data<<<<<
339.315	-77.08
339.697	-77.08
340.079	-77.08
340.461	-146.02
340.843	-130.7
341.225	-100.06
341.607	-112.83
341.989	-166.45
342.371	-94.95
342.752	-20.91
343.134	-41.33
343.516	-82.19
343.897	-43.89
344.279	-18.35
344.661	35.27
345.042	71.02
345.423	60.8
345.805	78.68
346.186	152.72
346.567	139.96
346.949	142.51
347.33	111.87
347.711	175.7
348.092	193.58
348.473	201.24
348.854	249.75
349.235	321.25
349.616	285.5
349.997	295.71
350.378	257.41
350.758	298.27
351.139	374.87
351.52	346.78
351.9	295.71
352.281	275.29
352.661	362.1
353.042	410.62
353.422	346.78
353.803	402.95
354.183	351.89
354.563	313.59
354.943	408.06
355.324	346.78
355.704	385.08
356.084	369.76
356.464	364.65
356.844	346.78
357.224	377.42
357.603	349.33
357.983	377.42
358.363	390.19
358.743	367.21
359.122	372.31
359.502	346.78
359.882	351.89
360.261	341.67
360.641	356.99
361.02	339.12
361.399	321.25
361.779	344.23
362.158	385.08
362.537	387.63
362.916	336.57
363.296	349.33
363.675	359.55
364.054	323.8
364.433	341.67
364.812	356.99
365.19	336.57
365.569	351.89
365.948	339.12
366.327	293.16
366.705	331.46
367.084	300.82
367.463	318.69
367.841	362.1
368.22	308.48
368.598	374.87
368.977	354.44
369.355	377.42
369.733	334.01
370.111	285.5
370.49	318.69
370.868	349.33
371.246	377.42
371.624	410.62
372.002	382.53
372.38	305.93
372.758	336.57
373.136	382.53
373.513	346.78
373.891	354.44
374.269	321.25
374.646	377.42
375.024	425.94
375.402	285.5
375.779	339.12
376.157	334.01
376.534	346.78
376.911	349.33
377.289	321.25
377.666	351.89
378.043	405.51
378.42	336.57
378.797	290.61
379.175	369.76
379.552	354.44
379.929	303.37
380.305	387.63
380.682	374.87
381.059	351.89
381.436	334.01
381.813	395.29
382.189	316.14
382.566	395.29
382.943	354.44
383.319	374.87
383.696	318.69
384.072	300.82
384.448	385.08
384.825	364.65
385.201	374.87
385.577	362.1
385.953	400.4
386.329	339.12
386.706	328.91
387.082	385.08
387.458	298.27
387.834	356.99
388.209	311.03
388.585	392.74
388.961	436.15
389.337	362.1
389.713	346.78
390.088	334.01
390.464	349.33
390.839	323.8
391.215	334.01
391.59	377.42
391.966	410.62
392.341	362.1
392.716	344.23
393.092	379.97
393.467	300.82
393.842	402.95
394.217	328.91
394.592	369.76
394.967	377.42
395.342	349.33
395.717	405.51
396.092	372.31
396.467	382.53
396.841	367.21
397.216	397.85
397.591	303.37
397.965	379.97
398.34	303.37
398.714	377.42
399.089	336.57
399.463	364.65
399.838	392.74
400.212	451.47
400.586	351.89
400.961	356.99
401.335	415.72
401.709	374.87
402.083	382.53
402.457	385.08
402.831	316.14
403.205	420.83
403.579	374.87
403.953	410.62
404.326	390.19
404.7	305.93
405.074	326.35
405.447	339.12
405.821	331.46
406.195	372.31
406.568	367.21
406.942	397.85
407.315	341.67
407.688	415.72
408.062	390.19
408.435	372.31
408.808	331.46
409.181	400.4
409.554	390.19
409.927	484.66
410.3	349.33
410.673	354.44
411.046	285.5
411.419	387.63
411.792	354.44
412.165	382.53
412.537	405.51
412.91	387.63
413.283	362.1
413.655	303.37
414.028	390.19
414.4	339.12
414.773	372.31
415.145	328.91
415.517	374.87
415.889	387.63
416.262	311.03
416.634	344.23
417.006	392.74
417.378	344.23
417.75	367.21
418.122	405.51
418.494	334.01
418.866	390.19
419.238	441.26
419.609	372.31
419.981	374.87
420.353	379.97
420.725	387.63
421.096	346.78
421.468	313.59
421.839	395.29
422.211	362.1
422.582	377.42
422.953	423.38
423.325	385.08
423.696	410.62
424.067	410.62
424.438	377.42
424.809	395.29
425.18	359.55
425.551	382.53
425.922	387.63
426.293	402.95
426.664	374.87
427.035	423.38
427.406	359.55
427.776	392.74
428.147	379.97
428.518	456.58
428.888	410.62
429.259	387.63
429.629	441.26
429.999	387.63
430.37	390.19
430.74	408.06
431.11	372.31
431.481	362.1
431.851	402.95
432.221	448.92
432.591	448.92
432.961	379.97
433.331	344.23
433.701	390.19
434.071	418.28
434.441	387.63
434.81	362.1
435.18	379.97
435.55	356.99
435.919	351.89
436.289	377.42
436.658	359.55
437.028	367.21
437.397	423.38
437.767	400.4
438.136	280.39
438.505	372.31
438.875	382.53
439.244	410.62
439.613	397.85
439.982	390.19
440.351	339.12
440.72	400.4
441.089	367.21
441.458	377.42
441.827	382.53
442.196	402.95
442.564	438.7
442.933	367.21
443.302	362.1
443.67	415.72
444.039	364.65
444.407	402.95
444.776	413.17
445.144	420.83
445.513	379.97
445.881	395.29
446.249	410.62
446.617	354.44
446.986	418.28
447.354	448.92
447.722	328.91
448.09	367.21
448.458	415.72
448.826	413.17
449.194	392.74
449.561	321.25
449.929	387.63
450.297	410.62
450.665	354.44
451.032	369.76
451.4	436.15
451.767	408.06
452.135	428.49
452.502	344.23
452.87	423.38
453.237	461.68
453.604	377.42
453.971	382.53
454.339	374.87
454.706	359.55
455.073	387.63
455.44	402.95
455.807	369.76
456.174	415.72
456.541	397.85
456.908	408.06
457.274	379.97
457.641	372.31
458.008	379.97
458.374	428.49
458.741	494.88
459.108	433.6
459.474	410.62
459.841	418.28
460.207	341.67
460.573	385.08
460.94	359.55
461.306	433.6
461.672	367.21
462.038	405.51
462.404	339.12
462.771	382.53
463.137	359.55
463.503	423.38
463.868	405.51
464.234	428.49
464.6	431.04
464.966	402.95
465.332	410.62
465.697	410.62
466.063	413.17
466.429	433.6
466.794	446.36
467.16	397.85
467.525	423.38
467.89	339.12
468.256	344.23
468.621	441.26
468.986	331.46
469.351	374.87
469.717	408.06
470.082	379.97
470.447	377.42
470.812	441.26
471.177	390.19
471.542	438.7
471.906	443.81
472.271	413.17
472.636	448.92
473.001	402.95
473.365	413.17
473.73	415.72
474.094	466.79
474.459	428.49
474.823	431.04
475.188	410.62
475.552	425.94
475.917	400.4
476.281	387.63
476.645	336.57
477.009	397.85
477.373	385.08
477.737	454.02
478.101	438.7
478.465	408.06
478.829	382.53
479.193	354.44
479.557	344.23
479.921	387.63
480.284	479.56
480.648	456.58
481.012	405.51
481.375	395.29
481.739	418.28
482.102	423.38
482.466	390.19
482.829	390.19
483.193	461.68
483.556	418.28
483.919	374.87
484.282	443.81
484.645	418.28
485.009	443.81
485.372	387.63
485.735	349.33
486.098	415.72
486.46	377.42
486.823	436.15
487.186	377.42
487.549	418.28
487.912	349.33
488.274	377.42
488.637	436.15
488.999	408.06
489.362	408.06
489.724	408.06
490.087	433.6
490.449	369.76
490.811	423.38
491.174	356.99
491.536	392.74
491.898	410.62
492.26	356.99
492.622	425.94
492.984	372.31
493.346	369.76
493.708	402.95
494.07	423.38
494.432	415.72
494.794	390.19
495.155	397.85
495.517	405.51
495.879	379.97
496.24	385.08
496.602	387.63
496.963	341.67
497.325	364.65
497.686	336.57
498.048	318.69
498.409	402.95
498.77	451.47
499.131	431.04
499.492	377.42
499.854	418.28
500.215	344.23
500.576	402.95
500.937	428.49
501.298	402.95
501.658	443.81
502.019	425.94
502.38	390.19
502.741	408.06
503.101	359.55
503.462	436.15
503.823	385.08
504.183	397.85
504.543	377.42
504.904	387.63
505.264	395.29
505.625	354.44
505.985	387.63
506.345	413.17
506.705	392.74
507.065	395.29
507.426	431.04
507.786	351.89
508.146	451.47
508.505	359.55
508.865	323.8
509.225	351.89
509.585	425.94
509.945	397.85
510.304	469.34
510.664	420.83
511.024	471.9
511.383	441.26
511.743	367.21
512.102	351.89
512.462	346.78
512.821	356.99
513.18	408.06
513.539	408.06
513.899	374.87
514.258	413.17
514.617	382.53
514.976	336.57
515.335	356.99
515.694	385.08
516.053	441.26
516.412	415.72
516.771	392.74
517.129	356.99
517.488	410.62
517.847	428.49
518.205	400.4
518.564	441.26
518.922	392.74
519.281	362.1
519.639	413.17
519.998	336.57
520.356	311.03
520.714	405.51
521.073	420.83
521.431	385.08
521.789	387.63
522.147	390.19
522.505	420.83
522.863	305.93
523.221	431.04
523.579	321.25
523.937	402.95
524.295	408.06
524.652	341.67
525.01	402.95
525.368	369.76
525.725	451.47
526.083	372.31
526.44	405.51
526.798	410.62
527.155	418.28
527.513	418.28
527.87	451.47
528.227	446.36
528.584	392.74
528.942	433.6
529.299	423.38
529.656	356.99
530.013	425.94
530.37	420.83
530.727	436.15
531.083	425.94
531.44	336.57
531.797	379.97
532.154	351.89
532.511	415.72
532.867	364.65
533.224	382.53
533.58	408.06
533.937	405.51
534.293	410.62
534.65	385.08
535.006	410.62
535.362	367.21
535.718	385.08
536.075	428.49
536.431	369.76
536.787	356.99
537.143	392.74
537.499	328.91
537.855	413.17
538.211	438.7
538.567	367.21
538.923	466.79
539.278	433.6
539.634	461.68
539.99	392.74
540.345	346.78
540.701	339.12
541.056	446.36
541.412	377.42
541.767	385.08
542.123	408.06
542.478	397.85
542.833	431.04
543.188	423.38
543.544	364.65
543.899	443.81
544.254	392.74
544.609	428.49
544.964	390.19
545.319	415.72
545.674	390.19
546.029	390.19
546.383	382.53
546.738	443.81
547.093	441.26
547.447	402.95
547.802	402.95
548.157	359.55
548.511	293.16
548.866	351.89
549.22	436.15
549.574	431.04
549.929	459.13
550.283	415.72
550.637	451.47
550.991	400.4
551.345	397.85
551.699	428.49
552.053	477
552.407	459.13
552.761	418.28
553.115	341.67
553.469	474.45
553.823	395.29
554.176	362.1
554.53	397.85
554.884	364.65
555.237	640.42
555.591	466.79
555.944	415.72
556.298	372.31
556.651	364.65
557.005	349.33
557.358	379.97
557.711	420.83
558.064	385.08
558.417	395.29
558.771	464.24
559.124	418.28
559.477	423.38
559.83	451.47
560.182	425.94
560.535	385.08
560.888	515.3
561.241	420.83
561.594	387.63
561.946	374.87
562.299	400.4
562.651	344.23
563.004	454.02
563.356	428.49
563.709	415.72
564.061	443.81
564.413	405.51
564.766	379.97
565.118	397.85
565.47	349.33
565.822	349.33
566.174	349.33
566.526	377.42
566.878	387.63
567.23	413.17
567.582	387.63
567.934	438.7
568.286	321.25
568.638	356.99
568.989	451.47
569.341	418.28
569.693	413.17
570.044	415.72
570.396	397.85
570.747	351.89
571.098	402.95
571.45	415.72
571.801	415.72
572.152	397.85
572.504	390.19
572.855	451.47
573.206	441.26
573.557	374.87
573.908	331.46
574.259	331.46
574.61	454.02
574.961	428.49
575.311	425.94
575.662	385.08
576.013	364.65
576.364	425.94
576.714	392.74
577.065	400.4
577.415	379.97
577.766	369.76
578.116	385.08
578.467	466.79
578.817	290.61
579.167	387.63
579.518	382.53
579.868	410.62
580.218	410.62
580.568	431.04
580.918	382.53
581.268	369.76
581.618	305.93
581.968	377.42
582.318	413.17
582.668	390.19
583.017	464.24
583.367	433.6
583.717	428.49
584.066	436.15
584.416	402.95
584.765	471.9
585.115	379.97
585.464	356.99
585.814	400.4
586.163	400.4
586.512	397.85
586.862	367.21
587.211	382.53
587.56	356.99
587.909	443.81
588.258	438.7
588.607	377.42
588.956	415.72
589.305	351.89
589.654	369.76
590.002	387.63
590.351	423.38
590.7	339.12
591.048	395.29
591.397	362.1
591.746	413.17
592.094	323.8
592.443	362.1
592.791	390.19
593.139	390.19
593.488	374.87
593.836	395.29
594.184	374.87
594.532	372.31
594.88	408.06
595.228	405.51
595.576	400.4
595.924	318.69
596.272	405.51
596.62	402.95
596.968	379.97
597.316	423.38
597.664	367.21
598.011	436.15
598.359	425.94
598.706	367.21
599.054	425.94
599.402	408.06
599.749	395.29
600.096	405.51
600.444	408.06
600.791	359.55
601.138	382.53
601.485	420.83
601.833	390.19
602.18	392.74
602.527	356.99
602.874	354.44
603.221	387.63
603.568	474.45
603.914	415.72
604.261	367.21
604.608	323.8
604.955	362.1
605.301	441.26
605.648	390.19
605.995	362.1
606.341	323.8
606.688	405.51
607.034	356.99
607.38	428.49
607.727	334.01
608.073	364.65
608.419	410.62
608.765	351.89
609.112	392.74
609.458	374.87
609.804	405.51
610.15	392.74
610.496	349.33
610.842	349.33
611.187	359.55
611.533	395.29
611.879	436.15
612.225	423.38
612.57	382.53
612.916	341.67
613.261	369.76
613.607	385.08
613.952	339.12
614.298	359.55
614.643	441.26
614.989	408.06
615.334	364.65
615.679	377.42
616.024	392.74
616.369	351.89
616.714	392.74
617.059	400.4
617.404	311.03
617.749	374.87
618.094	431.04
618.439	441.26
618.784	326.35
619.129	379.97
619.473	441.26
619.818	418.28
620.163	413.17
620.507	392.74
620.852	356.99
621.196	413.17
621.54	336.57
621.885	385.08
622.229	359.55
622.573	402.95
622.918	359.55
623.262	341.67
623.606	441.26
623.95	392.74
624.294	349.33
624.638	418.28
624.982	344.23
625.326	392.74
625.67	405.51
626.013	428.49
626.357	387.63
626.701	344.23
627.044	436.15
627.388	405.51
627.731	316.14
628.075	316.14
628.418	282.95
628.762	405.51
629.105	400.4
629.448	448.92
629.792	469.34
630.135	349.33
630.478	359.55
630.821	408.06
631.164	346.78
631.507	367.21
631.85	367.21
632.193	402.95
632.536	433.6
632.879	326.35
633.221	356.99
633.564	377.42
633.907	349.33
634.249	405.51
634.592	408.06
634.935	387.63
635.277	336.57
635.619	336.57
635.962	425.94
636.304	367.21
636.646	433.6
636.989	408.06
637.331	418.28
637.673	456.58
638.015	392.74
638.357	354.44
638.699	413.17
639.041	331.46
639.383	415.72
639.725	390.19
640.067	431.04
640.408	344.23
640.75	349.33
641.092	349.33
641.433	402.95
641.775	459.13
642.116	405.51
642.458	321.25
642.799	377.42
643.141	395.29
643.482	387.63
643.823	374.87
644.164	359.55
644.506	520.41
644.847	415.72
645.188	474.45
645.529	339.12
645.87	346.78
646.211	443.81
646.552	364.65
646.893	374.87
647.233	387.63
647.574	408.06
647.915	425.94
648.255	374.87
648.596	344.23
648.937	372.31
649.277	382.53
649.618	349.33
649.958	487.22
650.298	395.29
650.639	446.36
650.979	308.48
651.319	387.63
651.659	400.4
651.999	415.72
652.339	466.79
652.679	336.57
653.019	351.89
653.359	336.57
653.699	344.23
654.039	359.55
654.379	316.14
654.719	431.04
655.058	326.35
655.398	334.01
655.737	479.56
656.077	326.35
656.416	413.17
656.756	372.31
657.095	328.91
657.435	433.6
657.774	413.17
658.113	379.97
658.452	400.4
658.792	387.63
659.131	420.83
659.47	339.12
659.809	367.21
660.148	351.89
660.487	351.89
660.826	346.78
661.164	367.21
661.503	377.42
661.842	425.94
662.181	328.91
662.519	423.38
662.858	428.49
663.196	392.74
663.535	466.79
663.873	382.53
664.212	390.19
664.55	341.67
664.888	385.08
665.226	446.36
665.565	405.51
665.903	612.33
666.241	502.54
666.579	395.29
666.917	385.08
667.255	385.08
667.593	377.42
667.931	397.85
668.268	293.16
668.606	410.62
668.944	390.19
669.282	397.85
669.619	362.1
669.957	400.4
670.294	387.63
670.632	367.21
670.969	341.67
671.307	339.12
671.644	387.63
671.981	413.17
672.318	372.31
672.656	379.97
672.993	392.74
673.33	438.7
673.667	359.55
674.004	344.23
674.341	377.42
674.678	441.26
675.015	387.63
675.351	356.99
675.688	323.8
676.025	382.53
676.362	392.74
676.698	448.92
677.035	346.78
677.371	344.23
677.708	354.44
678.044	390.19
678.38	377.42
678.717	362.1
679.053	415.72
679.389	446.36
679.725	377.42
680.062	413.17
680.398	425.94
680.734	359.55
681.07	425.94
681.406	413.17
681.742	446.36
682.077	385.08
682.413	377.42
682.749	344.23
683.085	369.76
683.42	379.97
683.756	390.19
684.091	397.85
684.427	379.97
684.762	382.53
685.098	356.99
685.433	311.03
685.768	397.85
686.104	402.95
686.439	379.97
686.774	367.21
687.109	441.26
687.444	402.95
687.779	456.58
688.114	351.89
688.449	392.74
688.784	402.95
689.119	288.05
689.454	385.08
689.789	410.62
690.123	405.51
690.458	420.83
690.792	392.74
691.127	359.55
691.461	402.95
691.796	385.08
692.13	428.49
692.465	425.94
692.799	377.42
693.133	379.97
693.467	390.19
693.802	408.06
694.136	354.44
694.47	438.7
694.804	397.85
695.138	387.63
695.472	316.14
695.806	364.65
696.139	413.17
696.473	428.49
696.807	362.1
697.141	377.42
697.474	359.55
697.808	390.19
698.141	367.21
698.475	400.4
698.808	377.42
699.142	413.17
699.475	372.31
699.808	464.24
700.142	377.42
700.475	402.95
700.808	451.47
701.141	425.94
701.474	359.55
701.807	402.95
702.14	436.15
702.473	387.63
702.806	395.29
703.139	377.42
703.472	379.97
703.804	374.87
704.137	392.74
704.47	359.55
704.802	341.67
705.135	295.71
705.467	374.87
705.8	374.87
706.132	382.53
706.464	390.19
706.797	387.63
707.129	400.4
707.461	369.76
707.793	415.72
708.125	356.99
708.457	367.21
708.789	356.99
709.121	387.63
709.453	405.51
709.785	351.89
710.117	300.82
710.449	367.21
710.781	433.6
711.112	395.29
711.444	451.47
711.775	425.94
712.107	351.89
712.438	328.91
712.77	410.62
713.101	423.38
713.433	318.69
713.764	349.33
714.095	367.21
714.426	377.42
714.757	354.44
715.089	397.85
715.42	351.89
715.751	351.89
716.082	367.21
716.412	385.08
716.743	356.99
717.074	390.19
717.405	420.83
717.736	326.35
718.066	385.08
718.397	433.6
718.727	382.53
719.058	372.31
719.388	362.1
719.719	344.23
720.049	390.19
720.38	395.29
720.71	405.51
721.04	405.51
721.37	369.76
721.7	392.74
722.031	328.91
722.361	395.29
722.691	379.97
723.021	362.1
723.35	364.65
723.68	382.53
724.01	349.33
724.34	362.1
724.67	369.76
724.999	405.51
725.329	379.97
725.658	438.7
725.988	359.55
726.317	341.67
726.647	334.01
726.976	433.6
727.306	397.85
727.635	392.74
727.964	405.51
728.293	318.69
728.622	451.47
728.952	351.89
729.281	359.55
729.61	349.33
729.939	346.78
730.267	336.57
730.596	466.79
730.925	438.7
731.254	367.21
731.583	392.74
731.911	408.06
732.24	451.47
732.568	336.57
732.897	382.53
733.225	339.12
733.554	356.99
733.882	295.71
734.21	387.63
734.539	431.04
734.867	321.25
735.195	433.6
735.523	413.17
735.851	387.63
736.179	433.6
736.507	374.87
736.835	344.23
737.163	359.55
737.491	423.38
737.819	420.83
738.147	385.08
738.474	415.72
738.802	413.17
739.13	405.51
739.457	362.1
739.785	410.62
740.112	431.04
740.44	395.29
740.767	385.08
741.094	349.33
741.422	413.17
741.749	392.74
742.076	400.4
742.403	400.4
742.73	397.85
743.057	339.12
743.384	395.29
743.711	392.74
744.038	387.63
744.365	387.63
744.692	351.89
745.018	328.91
745.345	420.83
745.672	362.1
745.998	438.7
746.325	303.37
746.651	331.46
746.978	326.35
747.304	369.76
747.631	423.38
747.957	390.19
748.283	344.23
748.61	311.03
748.936	362.1
749.262	446.36
749.588	408.06
749.914	441.26
750.24	405.51
750.566	308.48
750.892	359.55
751.218	362.1
751.543	356.99
751.869	374.87
752.195	402.95
752.521	423.38
752.846	405.51
753.172	382.53
753.497	482.11
753.823	374.87
754.148	385.08
754.473	318.69
754.799	323.8
755.124	321.25
755.449	410.62
755.774	405.51
756.1	346.78
756.425	405.51
756.75	349.33
757.075	336.57
757.4	487.22
757.724	382.53
758.049	344.23
758.374	392.74
758.699	413.17
759.024	400.4
759.348	374.87
759.673	400.4
759.997	425.94
760.322	385.08
760.646	346.78
760.971	395.29
761.295	413.17
761.619	466.79
761.944	456.58
762.268	443.81
762.592	507.64
762.916	497.43
763.24	502.54
763.564	543.39
763.888	594.46
764.212	681.27
764.536	701.7
764.86	683.83
765.184	734.89
765.508	791.07
765.831	783.41
766.155	1105.13
766.478	882.99
766.802	806.39
767.126	768.09
767.449	732.34
767.772	729.79
768.096	701.7
768.419	586.8
768.742	571.48
769.066	568.92
769.389	538.28
769.712	528.07
770.035	640.42
770.358	826.82
770.681	941.72
771.004	1043.85
771.327	1186.84
771.65	1391.11
771.972	1618.36
772.295	1899.23
772.618	2272.03
772.941	2460.98
773.263	2711.21
773.586	3122.3
773.908	3441.47
774.231	3500.2
774.553	3579.36
774.875	3842.36
775.198	3730.01
775.52	3497.65
775.842	3290.83
776.164	3040.59
776.487	2803.13
776.809	2757.17
777.131	2744.4
777.453	2501.83
777.775	2310.33
778.096	2095.84
778.418	1812.42
778.74	1498.35
779.062	1255.78
779.384	1158.75
779.705	949.38
780.027	962.14
780.348	992.79
780.67	995.34
780.991	1253.23
781.313	1608.15
781.634	1975.84
781.955	2261.81
782.277	2851.64
782.598	3295.93
782.919	3551.27
783.24	4107.91
783.561	4633.9
783.882	4886.69
784.203	5093.51
784.524	5159.9
784.845	5387.15
785.166	5619.51
785.487	6017.83
785.807	6273.17
786.128	6408.5
786.449	6247.64
786.769	6076.56
787.09	5918.25
787.41	6025.49
787.731	5987.19
788.051	5956.55
788.372	5851.86
788.692	5655.25
789.012	5101.17
789.332	4227.92
789.653	3895.98
789.973	3579.36
790.293	2836.32
790.613	2111.16
790.933	1751.14
791.253	1605.6
791.573	1186.84
791.893	997.89
792.212	890.65
792.532	854.9
792.852	928.95
793.171	1184.29
793.491	1493.25
793.811	1934.98
794.13	2376.72
794.45	2685.67
794.769	3252.52
795.088	3809.16
795.408	4347.92
795.727	5384.6
796.046	6607.66
796.365	7565.18
796.684	7858.82
797.004	7749.02
797.323	8078.41
797.642	9298.92
797.96	8944
798.279	8612.07
798.598	8438.44
798.917	8389.92
799.236	7932.87
799.554	7774.56
799.873	7200.05
800.192	6898.75
800.51	6508.08
800.829	6068.9
801.147	5463.75
801.466	4733.48
801.784	4480.7
802.102	3778.52
802.421	3523.18
802.739	3196.35
803.057	2540.13
803.375	1957.96
803.693	1715.39
804.011	1592.83
804.329	1306.85
804.647	946.82
804.965	875.33
805.283	760.43
805.601	755.32
805.918	750.21
806.236	757.87
806.554	783.41
806.871	880.44
807.189	1087.26
807.507	1273.66
807.824	1577.51
808.141	1707.73
808.459	1705.18
808.776	1901.79
809.093	2090.74
809.411	2116.27
809.728	2297.56
810.045	2614.18
810.362	2859.3
810.679	3101.88
810.996	3482.33
811.313	3625.32
811.63	3768.31
811.947	3696.81
812.264	3709.58
812.58	3645.75
812.897	3569.14
813.214	3278.06
813.53	3257.63
813.847	3645.75
814.163	3523.18
814.48	3030.38
814.796	2695.89
815.113	2777.6
815.429	2563.11
815.745	2389.48
816.061	2249.05
816.378	2016.69
816.694	1659.22
817.01	1388.56
817.326	1454.95
817.642	1214.93
817.958	1089.81
818.274	885.54
818.59	724.68
818.905	660.85
819.221	648.08
819.537	619.99
819.852	441.26
820.168	464.24
820.484	477
820.799	461.68
821.115	548.5
821.43	489.77
821.745	589.35
822.061	558.71
822.376	591.9
822.691	671.06
823.006	678.72
823.322	747.66
823.637	798.73
823.952	801.28
824.267	773.19
824.582	921.29
824.897	949.38
825.211	1056.62
825.526	997.89
825.841	1048.96
826.156	1015.77
826.47	1061.73
826.785	1115.35
827.1	1191.95
827.414	1161.31
827.729	1222.59
828.043	1199.61
828.357	1123.01
828.672	1105.13
828.986	1161.31
829.3	1110.24
829.614	1151.09
829.929	1056.62
830.243	1015.77
830.557	911.08
830.871	854.9
831.185	860.01
831.499	865.12
831.812	819.16
832.126	740
832.44	747.66
832.754	734.89
833.067	711.91
833.381	724.68
833.695	645.53
834.008	627.65
834.322	612.33
834.635	553.6
834.948	515.3
835.262	551.05
835.575	492.32
835.888	443.81
836.201	387.63
836.515	441.26
836.828	402.95
837.141	382.53
837.454	390.19
837.767	372.31
838.08	408.06
838.392	420.83
838.705	431.04
839.018	408.06
839.331	379.97
839.643	402.95
839.956	382.53
840.269	392.74
840.581	382.53
840.894	382.53
841.206	385.08
841.519	528.07
841.831	395.29
842.143	415.72
842.455	538.28
842.768	517.86
843.08	425.94
843.392	477
843.704	405.51
844.016	471.9
844.328	477
844.64	517.86
844.952	471.9
845.263	456.58
845.575	499.98
845.887	456.58
846.199	456.58
846.51	377.42
846.822	492.32
847.133	479.56
847.445	477
847.756	405.51
848.068	341.67
848.379	443.81
848.69	423.38
849.002	446.36
849.313	415.72
849.624	405.51
849.935	446.36
850.246	425.94
850.557	364.65
850.868	390.19
851.179	374.87
851.49	364.65
851.801	334.01
852.112	415.72
852.422	418.28
852.733	390.19
853.044	374.87
853.354	405.51
853.665	308.48
853.975	356.99
854.286	356.99
854.596	431.04
854.906	420.83
855.217	413.17
855.527	423.38
855.837	341.67
856.147	505.09
856.458	464.24
856.768	395.29
857.078	415.72
857.388	364.65
857.698	369.76
858.007	364.65
858.317	344.23
858.627	390.19
858.937	364.65
859.246	356.99
859.556	359.55
859.866	425.94
860.175	367.21
860.485	385.08
860.794	387.63
861.104	346.78
861.413	334.01
861.722	331.46
862.032	328.91
862.341	326.35
862.65	428.49
862.959	466.79
863.268	354.44
863.577	351.89
863.886	382.53
864.195	413.17
864.504	369.76
864.813	364.65
865.122	385.08
865.43	354.44
865.739	395.29
866.048	336.57
866.356	415.72
866.665	385.08
866.973	395.29
867.282	379.97
867.59	356.99
867.899	456.58
868.207	415.72
868.515	349.33
868.823	362.1
869.132	356.99
869.44	328.91
869.748	318.69
870.056	367.21
870.364	328.91
870.672	382.53
870.98	423.38
871.288	336.57
871.595	372.31
871.903	402.95
872.211	379.97
872.518	456.58
872.826	438.7
873.134	334.01
873.441	405.51
873.749	367.21
874.056	390.19
874.363	397.85
874.671	334.01
874.978	369.76
875.285	392.74
875.592	331.46
875.9	356.99
876.207	374.87
876.514	377.42
876.821	385.08
877.128	425.94
877.435	397.85
877.741	420.83
878.048	392.74
878.355	374.87
878.662	323.8
878.968	311.03
879.275	341.67
879.582	339.12
879.888	359.55
880.195	456.58
880.501	364.65
880.807	379.97
881.114	387.63
881.42	367.21
881.726	374.87
882.032	441.26
882.339	351.89
882.645	382.53
882.951	402.95
883.257	420.83
883.563	377.42
883.869	323.8
884.174	385.08
884.48	390.19
884.786	382.53
885.092	438.7
885.397	400.4
885.703	354.44
886.009	362.1
886.314	379.97
886.62	346.78
886.925	351.89
887.231	339.12
887.536	385.08
887.841	346.78
888.146	367.21
888.452	390.19
888.757	392.74
889.062	379.97
889.367	402.95
889.672	418.28
889.977	418.28
890.282	410.62
890.587	362.1
890.892	379.97
891.196	413.17
891.501	372.31
891.806	377.42
892.11	354.44
892.415	341.67
892.72	369.76
893.024	364.65
893.328	418.28
893.633	354.44
893.937	323.8
894.242	336.57
894.546	400.4
894.85	382.53
895.154	431.04
895.458	369.76
895.762	382.53
896.066	346.78
896.37	359.55
896.674	382.53
896.978	387.63
897.282	420.83
897.586	372.31
897.89	285.5
898.193	334.01
898.497	402.95
898.801	464.24
899.104	354.44
899.408	351.89
899.711	344.23
900.014	390.19
900.318	379.97
900.621	395.29
900.924	344.23
901.228	400.4
901.531	392.74
901.834	413.17
902.137	456.58
902.44	323.8
902.743	433.6
903.046	364.65
903.349	405.51
903.652	374.87
903.955	354.44
904.257	405.51
904.56	405.51
904.863	400.4
905.165	374.87
905.468	318.69
905.77	374.87
906.073	354.44
906.375	392.74
906.678	369.76
906.98	326.35
907.282	334.01
907.584	400.4
907.887	415.72
908.189	249.75
908.491	331.46
908.793	349.33
909.095	341.67
909.397	313.59
909.699	303.37
910.001	374.87
910.302	351.89
910.604	374.87
910.906	354.44
911.208	415.72
911.509	451.47
911.811	385.08
912.112	410.62
912.414	379.97
912.715	374.87
913.017	408.06
913.318	349.33
913.619	397.85
913.92	423.38
914.222	374.87
914.523	377.42
914.824	341.67
915.125	316.14
915.426	379.97
915.727	395.29
916.028	413.17
916.329	441.26
916.63	423.38
916.93	372.31
917.231	323.8
917.532	385.08
917.832	392.74
918.133	390.19
918.434	344.23
918.734	359.55
919.034	456.58
919.335	323.8
919.635	382.53
919.935	415.72
920.236	356.99
920.536	441.26
920.836	390.19
921.136	415.72
921.436	507.64
921.736	346.78
922.036	392.74
922.336	341.67
922.636	410.62
922.936	313.59
923.236	341.67
923.535	344.23
923.835	328.91
924.135	351.89
924.434	303.37
924.734	349.33
925.033	415.72
925.333	397.85
925.632	339.12
925.932	334.01
926.231	377.42
926.53	354.44
926.83	479.56
927.129	377.42
927.428	339.12
927.727	387.63
928.026	400.4
928.325	423.38
928.624	433.6
928.923	331.46
929.222	402.95
929.52	413.17
929.819	395.29
930.118	431.04
930.417	379.97
930.715	385.08
931.014	282.95
931.312	364.65
931.611	402.95
931.909	367.21
932.207	364.65
932.506	395.29
932.804	354.44
933.102	349.33
933.401	356.99
933.699	374.87
933.997	390.19
934.295	364.65
934.593	362.1
934.891	397.85
935.189	379.97
935.487	367.21
935.784	425.94
936.082	385.08
936.38	372.31
936.677	377.42
936.975	305.93
937.273	303.37
937.57	349.33
937.868	369.76
938.165	351.89
938.463	336.57
938.76	395.29
939.057	372.31
939.354	356.99
939.652	349.33
939.949	387.63
940.246	313.59
940.543	354.44
940.84	428.49
941.137	413.17
941.434	362.1
941.731	369.76
942.028	461.68
942.324	367.21
942.621	369.76
942.918	431.04
943.214	459.13
943.511	377.42
943.807	321.25
944.104	402.95
944.4	392.74
944.697	351.89
944.993	362.1
945.29	359.55
945.586	323.8
945.882	395.29
946.178	328.91
946.474	359.55
946.77	346.78
947.066	318.69
947.362	405.51
947.658	372.31
947.954	382.53
948.25	372.31
948.546	346.78
948.842	390.19
949.137	344.23
949.433	405.51
949.729	395.29
950.024	372.31
950.32	397.85
950.615	390.19
950.91	359.55
951.206	313.59
951.501	415.72
951.796	438.7
952.092	392.74
952.387	402.95
952.682	334.01
952.977	359.55
953.272	387.63
953.567	364.65
953.862	379.97
954.157	400.4
954.452	408.06
954.747	321.25
955.041	308.48
955.336	316.14
955.631	372.31
955.925	387.63
956.22	420.83
956.514	392.74
956.809	428.49
957.103	420.83
957.398	356.99
957.692	356.99
957.986	390.19
958.281	321.25
958.575	402.95
958.869	443.81
959.163	418.28
959.457	367.21
959.751	339.12
960.045	293.16
960.339	436.15
960.633	351.89
960.927	408.06
961.221	336.57
961.514	364.65
961.808	395.29
962.102	364.65
962.395	351.89
962.689	402.95
962.982	466.79
963.276	395.29
963.569	374.87
963.862	359.55
964.156	405.51
964.449	395.29
964.742	379.97
965.035	339.12
965.328	408.06
965.622	349.33
965.915	410.62
966.208	316.14
966.5	346.78
966.793	336.57
967.086	377.42
967.379	346.78
967.672	336.57
967.964	382.53
968.257	377.42
968.55	428.49
968.842	362.1
969.135	351.89
969.427	344.23
969.72	372.31
970.012	341.67
970.304	461.68
970.597	436.15
970.889	364.65
971.181	364.65
971.473	328.91
971.765	316.14
972.057	313.59
972.349	385.08
972.641	415.72
972.933	362.1
973.225	362.1
973.517	323.8
973.809	334.01
974.1	303.37
974.392	328.91
974.684	415.72
974.975	395.29
975.267	354.44
975.558	349.33
975.85	356.99
976.141	334.01
976.432	374.87
976.724	390.19
977.015	382.53
977.306	402.95
977.597	431.04
977.888	379.97
978.179	367.21
978.47	425.94
978.761	390.19
979.052	387.63
979.343	372.31
979.634	392.74
979.925	364.65
980.215	362.1
980.506	331.46
980.797	349.33
981.087	344.23
981.378	364.65
981.668	369.76
981.959	359.55
982.249	428.49
982.54	313.59
982.83	328.91
983.12	423.38
983.41	351.89
983.701	331.46
983.991	385.08
984.281	346.78
984.571	390.19
984.861	328.91
985.151	364.65
985.441	334.01
985.73	382.53
986.02	387.63
986.31	428.49
986.6	446.36
986.889	436.15
987.179	451.47
987.469	402.95
987.758	372.31
988.048	354.44
988.337	390.19
988.626	346.78
988.916	390.19
989.205	354.44
989.494	359.55
989.783	331.46
990.073	316.14
990.362	341.67
990.651	339.12
990.94	377.42
991.229	369.76
991.518	377.42
991.806	400.4
992.095	428.49
992.384	285.5
992.673	346.78
992.961	372.31
993.25	377.42
993.539	341.67
993.827	341.67
994.116	311.03
994.404	369.76
994.692	356.99
994.981	328.91
995.269	400.4
995.557	369.76
995.846	382.53
996.134	346.78
996.422	397.85
996.71	418.28
996.998	408.06
997.286	385.08
997.574	356.99
997.862	392.74
998.15	433.6
998.437	351.89
998.725	344.23
999.013	423.38
999.3	400.4
999.588	405.51
999.876	379.97
1000.163	395.29
1000.45	400.4
1000.738	326.35
1001.025	369.76
1001.313	377.42
1001.6	354.44
1001.887	351.89
1002.174	448.92
1002.461	433.6
1002.748	351.89
1003.036	410.62
1003.322	364.65
1003.609	377.42
1003.896	364.65
1004.183	400.4
1004.47	382.53
1004.757	308.48
1005.043	433.6
1005.33	405.51
1005.617	408.06
1005.903	344.23
1006.19	336.57
1006.476	339.12
1006.763	379.97
1007.049	402.95
1007.335	431.04
1007.622	372.31
1007.908	367.21
1008.194	387.63
1008.48	364.65
1008.766	382.53
1009.053	395.29
1009.339	300.82
1009.625	372.31
1009.91	420.83
1010.196	451.47
1010.482	339.12
1010.768	400.4
1011.054	369.76
1011.339	397.85
1011.625	372.31
1011.911	382.53
1012.196	372.31
1012.482	387.63
1012.767	331.46
1013.052	369.76
1013.338	359.55
1013.623	415.72
1013.908	356.99
1014.194	369.76
1014.479	402.95
1014.764	331.46
1015.049	339.12
1015.334	418.28
1015.619	362.1
1015.904	354.44
1016.189	359.55
1016.474	397.85
1016.758	326.35
1017.043	303.37
1017.328	272.73
1017.613	362.1
1017.897	387.63
1018.182	377.42
1018.466	339.12
1018.751	359.55
1019.035	334.01
1019.32	326.35
1019.604	402.95
1019.888	372.31
1020.172	372.31
1020.457	372.31
