Data from 2025-11-25_spectrum_FLMS141361__3__14-30-11-400.txt Node

Date: Tue Nov 25 14:30:11 MST 2025
User: james
Spectrometer: FLMS14136
Trigger mode: 0
Integration Time (sec): 1.000000E-1
Scans to average: 1
Electric dark correction enabled: true
Nonlinearity correction enabled: false
Boxcar width: 0
XAxis mode: Wavelengths
Number of Pixels in Spectrum: 2048
>>>>>Begin Spectral Data<<<<<
339.315	-59.69
339.697	-59.69
340.079	-59.69
340.461	-34.15
340.843	-67.35
341.225	-113.31
341.607	-113.31
341.989	-118.41
342.371	-131.18
342.752	-49.47
343.134	-62.24
343.516	14.36
343.897	-34.15
344.279	-6.06
344.661	45
345.042	-36.7
345.423	42.45
345.805	103.73
346.186	119.05
346.567	119.05
346.949	221.19
347.33	182.89
347.711	203.31
348.092	256.93
348.473	190.55
348.854	175.23
349.235	223.74
349.616	208.42
349.997	274.81
350.378	333.54
350.758	351.41
351.139	290.13
351.52	359.07
351.9	295.23
352.281	430.56
352.661	348.86
353.042	282.47
353.422	351.41
353.803	387.16
354.183	356.52
354.563	361.62
354.943	369.28
355.324	410.14
355.704	387.16
356.084	407.58
356.464	369.28
356.844	407.58
357.224	361.62
357.603	320.77
357.983	279.91
358.363	351.41
358.743	407.58
359.122	374.39
359.502	389.71
359.882	389.71
360.261	410.14
360.641	376.94
361.02	374.39
361.399	336.09
361.779	315.66
362.158	330.98
362.537	295.23
362.916	364.18
363.296	310.55
363.675	330.98
364.054	297.79
364.433	320.77
364.812	353.96
365.19	333.54
365.569	308
365.948	356.52
366.327	359.07
366.705	333.54
367.084	389.71
367.463	300.34
367.841	346.3
368.22	320.77
368.598	338.64
368.977	310.55
369.355	389.71
369.733	412.69
370.111	333.54
370.49	341.2
370.868	302.89
371.246	366.73
371.624	333.54
372.002	328.43
372.38	379.5
372.758	364.18
373.136	330.98
373.513	236.51
373.891	285.02
374.269	336.09
374.646	338.64
375.024	369.28
375.402	361.62
375.779	356.52
376.157	325.87
376.534	315.66
376.911	336.09
377.289	379.5
377.666	336.09
378.043	387.16
378.42	330.98
378.797	356.52
379.175	361.62
379.552	336.09
379.929	310.55
380.305	338.64
380.682	392.26
381.059	384.6
381.436	448.44
381.813	323.32
382.189	336.09
382.566	420.35
382.943	374.39
383.319	402.48
383.696	399.92
384.072	351.41
384.448	320.77
384.825	379.5
385.201	353.96
385.577	392.26
385.953	353.96
386.329	384.6
386.706	376.94
387.082	384.6
387.458	328.43
387.834	379.5
388.209	359.07
388.585	376.94
388.961	410.14
389.337	330.98
389.713	382.05
390.088	392.26
390.464	356.52
390.839	341.2
391.215	384.6
391.59	338.64
391.966	456.1
392.341	402.48
392.716	292.68
393.092	405.03
393.467	382.05
393.842	364.18
394.217	359.07
394.592	364.18
394.967	369.28
395.342	323.32
395.717	328.43
396.092	300.34
396.467	379.5
396.841	300.34
397.216	343.75
397.591	428.01
397.965	359.07
398.34	356.52
398.714	420.35
399.089	353.96
399.463	382.05
399.838	382.05
400.212	361.62
400.586	361.62
400.961	420.35
401.335	282.47
401.709	333.54
402.083	313.11
402.457	369.28
402.831	402.48
403.205	308
403.579	450.99
403.953	348.86
404.326	387.16
404.7	399.92
405.074	336.09
405.447	320.77
405.821	443.33
406.195	407.58
406.568	325.87
406.942	422.9
407.315	410.14
407.688	440.78
408.062	285.02
408.435	382.05
408.808	415.24
409.181	346.3
409.554	392.26
409.927	341.2
410.3	440.78
410.673	369.28
411.046	392.26
411.419	338.64
411.792	384.6
412.165	387.16
412.537	412.69
412.91	343.75
413.283	443.33
413.655	399.92
414.028	397.37
414.4	374.39
414.773	369.28
415.145	343.75
415.517	433.12
415.889	402.48
416.262	410.14
416.634	458.65
417.006	420.35
417.378	486.74
417.75	384.6
418.122	351.41
418.494	443.33
418.866	295.23
419.238	374.39
419.609	353.96
419.981	420.35
420.353	430.56
420.725	438.22
421.096	364.18
421.468	450.99
421.839	438.22
422.211	397.37
422.582	351.41
422.953	374.39
423.325	336.09
423.696	310.55
424.067	417.8
424.438	359.07
424.809	348.86
425.18	346.3
425.551	410.14
425.922	336.09
426.293	438.22
426.664	351.41
427.035	489.29
427.406	412.69
427.776	361.62
428.147	392.26
428.518	420.35
428.888	428.01
429.259	481.63
429.629	405.03
429.999	415.24
430.37	346.3
430.74	407.58
431.11	346.3
431.481	364.18
431.851	313.11
432.221	376.94
432.591	371.84
432.961	407.58
433.331	456.1
433.701	353.96
434.071	341.2
434.441	374.39
434.81	397.37
435.18	394.82
435.55	471.42
435.919	405.03
436.289	440.78
436.658	417.8
437.028	389.71
437.397	417.8
437.767	359.07
438.136	366.73
438.505	422.9
438.875	346.3
439.244	489.29
439.613	499.5
439.982	438.22
440.351	415.24
440.72	402.48
441.089	336.09
441.458	387.16
441.827	443.33
442.196	399.92
442.564	507.16
442.933	397.37
443.302	392.26
443.67	328.43
444.039	448.44
444.407	348.86
444.776	371.84
445.144	318.21
445.513	361.62
445.881	433.12
446.249	412.69
446.617	420.35
446.986	382.05
447.354	425.46
447.722	389.71
448.09	435.67
448.458	428.01
448.826	471.42
449.194	364.18
449.561	468.86
449.929	486.74
450.297	412.69
450.665	356.52
451.032	399.92
451.4	346.3
451.767	430.56
452.135	394.82
452.502	438.22
452.87	417.8
453.237	443.33
453.604	438.22
453.971	394.82
454.339	397.37
454.706	397.37
455.073	405.03
455.44	382.05
455.807	343.75
456.174	473.97
456.541	489.29
456.908	364.18
457.274	476.52
457.641	425.46
458.008	389.71
458.374	463.76
458.741	425.46
459.108	440.78
459.474	440.78
459.841	453.54
460.207	450.99
460.573	425.46
460.94	382.05
461.306	382.05
461.672	405.03
462.038	346.3
462.404	410.14
462.771	405.03
463.137	353.96
463.503	389.71
463.868	417.8
464.234	351.41
464.6	410.14
464.966	405.03
465.332	382.05
465.697	346.3
466.063	430.56
466.429	402.48
466.794	374.39
467.16	364.18
467.525	346.3
467.89	361.62
468.256	374.39
468.621	369.28
468.986	445.88
469.351	407.58
469.717	415.24
470.082	481.63
470.447	397.37
470.812	435.67
471.177	397.37
471.542	445.88
471.906	417.8
472.271	361.62
472.636	333.54
473.001	428.01
473.365	374.39
473.73	382.05
474.094	430.56
474.459	364.18
474.823	397.37
475.188	389.71
475.552	369.28
475.917	382.05
476.281	425.46
476.645	453.54
477.009	433.12
477.373	417.8
477.737	420.35
478.101	399.92
478.465	384.6
478.829	425.46
479.193	382.05
479.557	417.8
479.921	376.94
480.284	410.14
480.648	353.96
481.012	445.88
481.375	361.62
481.739	422.9
482.102	433.12
482.466	405.03
482.829	410.14
483.193	425.46
483.556	399.92
483.919	389.71
484.282	481.63
484.645	407.58
485.009	394.82
485.372	407.58
485.735	356.52
486.098	448.44
486.46	407.58
486.823	440.78
487.186	407.58
487.549	387.16
487.912	356.52
488.274	397.37
488.637	417.8
488.999	387.16
489.362	356.52
489.724	361.62
490.087	433.12
490.449	453.54
490.811	366.73
491.174	433.12
491.536	420.35
491.898	415.24
492.26	420.35
492.622	443.33
492.984	461.2
493.346	402.48
493.708	425.46
494.07	417.8
494.432	445.88
494.794	453.54
495.155	435.67
495.517	353.96
495.879	443.33
496.24	394.82
496.602	343.75
496.963	405.03
497.325	405.03
497.686	491.84
498.048	399.92
498.409	359.07
498.77	389.71
499.131	374.39
499.492	366.73
499.854	407.58
500.215	417.8
500.576	397.37
500.937	399.92
501.298	387.16
501.658	412.69
502.019	453.54
502.38	382.05
502.741	412.69
503.101	397.37
503.462	394.82
503.823	425.46
504.183	445.88
504.543	405.03
504.904	320.77
505.264	374.39
505.625	440.78
505.985	410.14
506.345	420.35
506.705	384.6
507.065	410.14
507.426	433.12
507.786	443.33
508.146	407.58
508.505	405.03
508.865	361.62
509.225	445.88
509.585	450.99
509.945	438.22
510.304	420.35
510.664	374.39
511.024	410.14
511.383	371.84
511.743	392.26
512.102	458.65
512.462	425.46
512.821	453.54
513.18	456.1
513.539	420.35
513.899	417.8
514.258	440.78
514.617	410.14
514.976	425.46
515.335	397.37
515.694	402.48
516.053	371.84
516.412	402.48
516.771	394.82
517.129	407.58
517.488	410.14
517.847	420.35
518.205	410.14
518.564	369.28
518.922	433.12
519.281	458.65
519.639	361.62
519.998	402.48
520.356	392.26
520.714	374.39
521.073	448.44
521.431	481.63
521.789	430.56
522.147	389.71
522.505	466.31
522.863	438.22
523.221	433.12
523.579	376.94
523.937	341.2
524.295	440.78
524.652	443.33
525.01	420.35
525.368	428.01
525.725	471.42
526.083	392.26
526.44	353.96
526.798	458.65
527.155	443.33
527.513	458.65
527.87	456.1
528.227	389.71
528.584	382.05
528.942	389.71
529.299	366.73
529.656	440.78
530.013	422.9
530.37	440.78
530.727	422.9
531.083	407.58
531.44	366.73
531.797	410.14
532.154	438.22
532.511	410.14
532.867	417.8
533.224	433.12
533.58	448.44
533.937	458.65
534.293	428.01
534.65	412.69
535.006	445.88
535.362	448.44
535.718	346.3
536.075	458.65
536.431	399.92
536.787	471.42
537.143	453.54
537.499	428.01
537.855	366.73
538.211	433.12
538.567	407.58
538.923	471.42
539.278	402.48
539.634	417.8
539.99	476.52
540.345	422.9
540.701	484.18
541.056	450.99
541.412	422.9
541.767	425.46
542.123	440.78
542.478	389.71
542.833	387.16
543.188	394.82
543.544	399.92
543.899	417.8
544.254	433.12
544.609	382.05
544.964	369.28
545.319	371.84
545.674	412.69
546.029	445.88
546.383	445.88
546.738	422.9
547.093	374.39
547.447	476.52
547.802	450.99
548.157	445.88
548.511	399.92
548.866	399.92
549.22	425.46
549.574	330.98
549.929	394.82
550.283	479.08
550.637	417.8
550.991	369.28
551.345	364.18
551.699	415.24
552.053	463.76
552.407	387.16
552.761	402.48
553.115	456.1
553.469	425.46
553.823	440.78
554.176	412.69
554.53	425.46
554.884	517.38
555.237	650.15
555.591	458.65
555.944	466.31
556.298	481.63
556.651	517.38
557.005	486.74
557.358	519.93
557.711	430.56
558.064	346.3
558.417	399.92
558.771	481.63
559.124	387.16
559.477	376.94
559.83	356.52
560.182	356.52
560.535	494.4
560.888	443.33
561.241	407.58
561.594	387.16
561.946	351.41
562.299	445.88
562.651	420.35
563.004	443.33
563.356	428.01
563.709	405.03
564.061	450.99
564.413	417.8
564.766	394.82
565.118	412.69
565.47	440.78
565.822	417.8
566.174	392.26
566.526	445.88
566.878	486.74
567.23	473.97
567.582	473.97
567.934	445.88
568.286	461.2
568.638	399.92
568.989	456.1
569.341	481.63
569.693	353.96
570.044	428.01
570.396	361.62
570.747	435.67
571.098	356.52
571.45	420.35
571.801	458.65
572.152	374.39
572.504	435.67
572.855	366.73
573.206	392.26
573.557	376.94
573.908	384.6
574.259	450.99
574.61	407.58
574.961	425.46
575.311	463.76
575.662	445.88
576.013	387.16
576.364	397.37
576.714	466.31
577.065	394.82
577.415	420.35
577.766	438.22
578.116	407.58
578.467	435.67
578.817	302.89
579.167	366.73
579.518	397.37
579.868	366.73
580.218	379.5
580.568	435.67
580.918	310.55
581.268	407.58
581.618	417.8
581.968	428.01
582.318	384.6
582.668	456.1
583.017	428.01
583.367	438.22
583.717	407.58
584.066	389.71
584.416	353.96
584.765	468.86
585.115	453.54
585.464	417.8
585.814	407.58
586.163	430.56
586.512	438.22
586.862	415.24
587.211	458.65
587.56	397.37
587.909	412.69
588.258	417.8
588.607	389.71
588.956	433.12
589.305	499.5
589.654	430.56
590.002	397.37
590.351	376.94
590.7	364.18
591.048	479.08
591.397	479.08
591.746	382.05
592.094	448.44
592.443	435.67
592.791	448.44
593.139	407.58
593.488	425.46
593.836	417.8
594.184	435.67
594.532	428.01
594.88	422.9
595.228	405.03
595.576	412.69
595.924	456.1
596.272	463.76
596.62	394.82
596.968	415.24
597.316	364.18
597.664	399.92
598.011	374.39
598.359	359.07
598.706	353.96
599.054	394.82
599.402	361.62
599.749	374.39
600.096	417.8
600.444	348.86
600.791	394.82
601.138	466.31
601.485	394.82
601.833	376.94
602.18	346.3
602.527	440.78
602.874	425.46
603.221	450.99
603.568	443.33
603.914	443.33
604.261	402.48
604.608	384.6
604.955	422.9
605.301	389.71
605.648	394.82
605.995	410.14
606.341	410.14
606.688	435.67
607.034	376.94
607.38	415.24
607.727	397.37
608.073	376.94
608.419	384.6
608.765	366.73
609.112	399.92
609.458	407.58
609.804	479.08
610.15	369.28
610.496	397.37
610.842	443.33
611.187	387.16
611.533	412.69
611.879	407.58
612.225	443.33
612.57	486.74
612.916	397.37
613.261	425.46
613.607	438.22
613.952	435.67
614.298	415.24
614.643	433.12
614.989	440.78
615.334	448.44
615.679	415.24
616.024	435.67
616.369	425.46
616.714	382.05
617.059	376.94
617.404	405.03
617.749	435.67
618.094	466.31
618.439	430.56
618.784	453.54
619.129	410.14
619.473	379.5
619.818	440.78
620.163	402.48
620.507	435.67
620.852	351.41
621.196	346.3
621.54	397.37
621.885	384.6
622.229	379.5
622.573	450.99
622.918	417.8
623.262	473.97
623.606	379.5
623.95	448.44
624.294	392.26
624.638	397.37
624.982	425.46
625.326	422.9
625.67	417.8
626.013	420.35
626.357	392.26
626.701	348.86
627.044	384.6
627.388	387.16
627.731	417.8
628.075	450.99
628.418	417.8
628.762	389.71
629.105	407.58
629.448	443.33
629.792	473.97
630.135	361.62
630.478	356.52
630.821	428.01
631.164	456.1
631.507	415.24
631.85	445.88
632.193	433.12
632.536	376.94
632.879	384.6
633.221	364.18
633.564	379.5
633.907	405.03
634.249	453.54
634.592	410.14
634.935	420.35
635.277	433.12
635.619	359.07
635.962	415.24
636.304	392.26
636.646	392.26
636.989	410.14
637.331	417.8
637.673	399.92
638.015	389.71
638.357	359.07
638.699	412.69
639.041	376.94
639.383	387.16
639.725	504.61
640.067	407.58
640.408	456.1
640.75	422.9
641.092	371.84
641.433	353.96
641.775	371.84
642.116	384.6
642.458	328.43
642.799	405.03
643.141	445.88
643.482	440.78
643.823	415.24
644.164	356.52
644.506	481.63
644.847	440.78
645.188	428.01
645.529	405.03
645.87	392.26
646.211	346.3
646.552	320.77
646.893	443.33
647.233	364.18
647.574	425.46
647.915	387.16
648.255	405.03
648.596	379.5
648.937	394.82
649.277	394.82
649.618	422.9
649.958	440.78
650.298	443.33
650.639	323.32
650.979	364.18
651.319	415.24
651.659	448.44
651.999	353.96
652.339	348.86
652.679	384.6
653.019	410.14
653.359	387.16
653.699	374.39
654.039	422.9
654.379	394.82
654.719	397.37
655.058	402.48
655.398	389.71
655.737	456.1
656.077	420.35
656.416	356.52
656.756	394.82
657.095	417.8
657.435	359.07
657.774	341.2
658.113	443.33
658.452	440.78
658.792	371.84
659.131	407.58
659.47	333.54
659.809	430.56
660.148	336.09
660.487	369.28
660.826	402.48
661.164	425.46
661.503	407.58
661.842	397.37
662.181	387.16
662.519	445.88
662.858	430.56
663.196	417.8
663.535	387.16
663.873	371.84
664.212	415.24
664.55	443.33
664.888	433.12
665.226	371.84
665.565	420.35
665.903	650.15
666.241	435.67
666.579	359.07
666.917	389.71
667.255	366.73
667.593	405.03
667.931	430.56
668.268	407.58
668.606	397.37
668.944	402.48
669.282	410.14
669.619	397.37
669.957	376.94
670.294	402.48
670.632	425.46
670.969	417.8
671.307	468.86
671.644	468.86
671.981	389.71
672.318	384.6
672.656	412.69
672.993	438.22
673.33	422.9
673.667	422.9
674.004	425.46
674.341	369.28
674.678	448.44
675.015	410.14
675.351	374.39
675.688	333.54
676.025	407.58
676.362	387.16
676.698	402.48
677.035	445.88
677.371	379.5
677.708	417.8
678.044	448.44
678.38	364.18
678.717	450.99
679.053	387.16
679.389	453.54
679.725	387.16
680.062	440.78
680.398	412.69
680.734	382.05
681.07	374.39
681.406	397.37
681.742	387.16
682.077	379.5
682.413	369.28
682.749	389.71
683.085	366.73
683.42	382.05
683.756	448.44
684.091	382.05
684.427	376.94
684.762	443.33
685.098	410.14
685.433	417.8
685.768	399.92
686.104	402.48
686.439	466.31
686.774	351.41
687.109	392.26
687.444	412.69
687.779	364.18
688.114	379.5
688.449	369.28
688.784	399.92
689.119	420.35
689.454	369.28
689.789	392.26
690.123	402.48
690.458	412.69
690.792	366.73
691.127	422.9
691.461	369.28
691.796	308
692.13	379.5
692.465	417.8
692.799	405.03
693.133	325.87
693.467	346.3
693.802	356.52
694.136	366.73
694.47	405.03
694.804	392.26
695.138	402.48
695.472	407.58
695.806	387.16
696.139	389.71
696.473	415.24
696.807	353.96
697.141	417.8
697.474	346.3
697.808	428.01
698.141	359.07
698.475	415.24
698.808	417.8
699.142	402.48
699.475	346.3
699.808	412.69
700.142	379.5
700.475	371.84
700.808	353.96
701.141	438.22
701.474	394.82
701.807	438.22
702.14	420.35
702.473	318.21
702.806	376.94
703.139	359.07
703.472	397.37
703.804	376.94
704.137	417.8
704.47	443.33
704.802	336.09
705.135	376.94
705.467	382.05
705.8	376.94
706.132	405.03
706.464	448.44
706.797	438.22
707.129	389.71
707.461	346.3
707.793	379.5
708.125	402.48
708.457	371.84
708.789	371.84
709.121	356.52
709.453	371.84
709.785	450.99
710.117	415.24
710.449	445.88
710.781	392.26
711.112	374.39
711.444	361.62
711.775	379.5
712.107	364.18
712.438	425.46
712.77	374.39
713.101	415.24
713.433	376.94
713.764	430.56
714.095	405.03
714.426	410.14
714.757	313.11
715.089	371.84
715.42	407.58
715.751	450.99
716.082	438.22
716.412	389.71
716.743	425.46
717.074	407.58
717.405	376.94
717.736	382.05
718.066	376.94
718.397	384.6
718.727	412.69
719.058	407.58
719.388	384.6
719.719	382.05
720.049	410.14
720.38	415.24
720.71	407.58
721.04	430.56
721.37	374.39
721.7	422.9
722.031	399.92
722.361	382.05
722.691	433.12
723.021	399.92
723.35	410.14
723.68	433.12
724.01	359.07
724.34	374.39
724.67	412.69
724.999	371.84
725.329	323.32
725.658	397.37
725.988	425.46
726.317	425.46
726.647	405.03
726.976	343.75
727.306	361.62
727.635	353.96
727.964	359.07
728.293	313.11
728.622	415.24
728.952	410.14
729.281	405.03
729.61	433.12
729.939	415.24
730.267	425.46
730.596	376.94
730.925	384.6
731.254	466.31
731.583	440.78
731.911	425.46
732.24	448.44
732.568	405.03
732.897	379.5
733.225	361.62
733.554	405.03
733.882	376.94
734.21	364.18
734.539	341.2
734.867	405.03
735.195	399.92
735.523	433.12
735.851	415.24
736.179	394.82
736.507	394.82
736.835	320.77
737.163	410.14
737.491	384.6
737.819	369.28
738.147	364.18
738.474	445.88
738.802	392.26
739.13	374.39
739.457	336.09
739.785	379.5
740.112	328.43
740.44	328.43
740.767	374.39
741.094	433.12
741.422	463.76
741.749	402.48
742.076	407.58
742.403	369.28
742.73	384.6
743.057	384.6
743.384	410.14
743.711	433.12
744.038	371.84
744.365	399.92
744.692	445.88
745.018	376.94
745.345	471.42
745.672	405.03
745.998	325.87
746.325	343.75
746.651	356.52
746.978	407.58
747.304	359.07
747.631	371.84
747.957	359.07
748.283	356.52
748.61	387.16
748.936	341.2
749.262	430.56
749.588	315.66
749.914	361.62
750.24	336.09
750.566	405.03
750.892	371.84
751.218	382.05
751.543	353.96
751.869	382.05
752.195	369.28
752.521	364.18
752.846	384.6
753.172	415.24
753.497	450.99
753.823	376.94
754.148	374.39
754.473	502.06
754.799	410.14
755.124	392.26
755.449	412.69
755.774	389.71
756.1	468.86
756.425	412.69
756.75	435.67
757.075	364.18
757.4	494.4
757.724	438.22
758.049	425.46
758.374	410.14
758.699	405.03
759.024	333.54
759.348	438.22
759.673	405.03
759.997	412.69
760.322	430.56
760.646	410.14
760.971	356.52
761.295	456.1
761.619	425.46
761.944	392.26
762.268	443.33
762.592	417.8
762.916	374.39
763.24	410.14
763.564	394.82
763.888	359.07
764.212	479.08
764.536	435.67
764.86	489.29
765.184	435.67
765.508	417.8
765.831	387.16
766.155	639.94
766.478	402.48
766.802	405.03
767.126	443.33
767.449	443.33
767.772	471.42
768.096	440.78
768.419	471.42
768.742	369.28
769.066	379.5
769.389	320.77
769.712	438.22
770.035	443.33
770.358	468.86
770.681	458.65
771.004	359.07
771.327	433.12
771.65	405.03
771.972	422.9
772.295	489.29
772.618	530.15
772.941	537.81
773.263	558.23
773.586	563.34
773.908	581.21
774.231	586.32
774.553	609.3
774.875	696.11
775.198	693.56
775.52	754.84
775.842	854.42
776.164	864.64
776.487	918.26
776.809	1056.14
777.131	928.47
777.453	910.6
777.775	925.92
778.096	1010.18
778.418	1084.23
778.74	1337.01
779.062	1541.28
779.384	1523.41
779.705	1582.14
780.027	2046.85
780.348	2777.12
780.67	3395.04
780.991	3757.61
781.313	3578.88
781.634	3300.56
781.955	3343.97
782.277	3229.07
782.598	3420.57
782.919	3688.67
783.24	4278.5
783.561	4184.03
783.882	3905.71
784.203	3686.12
784.524	3721.87
784.845	4242.76
785.166	4980.68
785.487	5950.97
785.807	6607.18
786.128	6849.76
786.449	7002.96
786.769	7186.8
787.09	7038.71
787.41	7786.85
787.731	8764.79
788.051	8713.72
788.372	8540.09
788.692	8425.19
789.012	8703.51
789.332	9538.46
789.653	11187.94
789.973	12827.21
790.293	13547.27
790.613	12755.72
790.933	11969.28
791.253	11313.06
791.573	11627.13
791.893	11711.39
792.212	12071.41
792.532	12158.23
792.852	11399.88
793.171	10577.69
793.491	10455.13
793.811	11448.39
794.13	12615.28
794.45	14650.33
794.769	16261.51
795.088	18768.92
795.408	19159.59
795.727	19869.43
796.046	18564.65
796.365	18480.39
796.684	21358.05
797.004	25088.53
797.323	26781.42
797.642	26260.54
797.96	23804.19
798.279	22136.83
798.598	21102.71
798.917	23398.2
799.236	24828.09
799.554	24927.67
799.873	23819.51
800.192	22172.58
800.51	22034.69
800.829	21401.46
801.147	23472.25
801.466	27264.01
801.784	29582.48
802.102	27435.09
802.421	26628.22
802.739	28923.71
803.057	31004.71
803.375	33185.3
803.693	34908.83
804.011	36466.39
804.329	36226.37
804.647	34099.41
804.965	33667.88
805.283	34439.01
805.601	36601.72
805.918	38228.22
806.236	37301.34
806.554	38230.77
806.871	36915.78
807.189	34977.77
807.507	33392.12
807.824	34418.58
808.141	37743.08
808.459	37837.55
808.776	36785.56
809.093	33016.77
809.411	31405.59
809.728	31959.68
810.045	34502.84
810.362	36550.65
810.679	37643.49
810.996	39224.04
811.313	36772.79
811.63	33969.18
811.947	31157.91
812.264	30810.65
812.58	30514.46
812.897	30213.16
813.214	27090.38
813.53	24912.35
813.847	25943.92
814.163	28793.49
814.48	31150.25
814.796	36739.6
815.113	40623.29
815.429	39673.43
815.745	35439.93
816.061	31022.59
816.378	25798.37
816.694	24074.84
817.01	22818.58
817.326	22540.26
817.642	21878.94
817.958	20946.96
818.274	18745.94
818.59	17821.62
818.905	16458.12
819.221	16703.24
819.537	16841.12
819.852	15740.62
820.168	13782.18
820.484	12043.33
820.799	10557.26
821.115	9620.17
821.43	10493.43
821.745	11394.77
822.061	11540.31
822.376	11461.16
822.691	10575.13
823.006	9290.79
823.322	8866.92
823.637	9083.96
823.952	9119.71
824.267	8371.57
824.582	6911.04
824.897	5539.87
825.211	4710.02
825.526	4671.72
825.841	5108.35
826.156	5276.87
826.47	5460.72
826.785	5054.73
827.1	4551.72
827.414	3915.92
827.729	3566.11
828.043	3188.21
828.357	3175.44
828.672	3254.6
828.986	3060.54
829.3	2766.9
829.614	2537.1
829.929	2409.43
830.243	2509.01
830.557	2713.28
830.871	2654.56
831.185	2718.39
831.499	2475.82
831.812	2187.29
832.126	1819.6
832.44	1842.58
832.754	1745.55
833.067	1737.89
833.381	1597.46
833.695	1331.91
834.008	1109.76
834.322	1035.71
834.635	964.22
834.948	1043.37
835.262	1053.59
835.575	1022.95
835.888	931.03
836.201	701.22
836.515	606.75
836.828	703.77
837.141	673.13
837.454	729.31
837.767	782.93
838.08	777.82
838.392	739.52
838.705	627.17
839.018	558.23
839.331	568.45
839.643	616.96
839.956	558.23
840.269	507.16
840.581	440.78
840.894	491.84
841.206	476.52
841.519	650.15
841.831	542.91
842.143	489.29
842.455	489.29
842.768	537.81
843.08	440.78
843.392	428.01
843.704	453.54
844.016	356.52
844.328	435.67
844.64	376.94
844.952	443.33
845.263	445.88
845.575	443.33
845.887	471.42
846.199	382.05
846.51	343.75
846.822	435.67
847.133	333.54
847.445	376.94
847.756	430.56
848.068	405.03
848.379	450.99
848.69	353.96
849.002	387.16
849.313	438.22
849.624	450.99
849.935	463.76
850.246	445.88
850.557	443.33
850.868	392.26
851.179	407.58
851.49	420.35
851.801	420.35
852.112	435.67
852.422	420.35
852.733	458.65
853.044	402.48
853.354	412.69
853.665	379.5
853.975	371.84
854.286	366.73
854.596	420.35
854.906	445.88
855.217	330.98
855.527	440.78
855.837	417.8
856.147	361.62
856.458	430.56
856.768	430.56
857.078	325.87
857.388	366.73
857.698	405.03
858.007	428.01
858.317	387.16
858.627	376.94
858.937	387.16
859.246	374.39
859.556	422.9
859.866	341.2
860.175	376.94
860.485	351.41
860.794	333.54
861.104	369.28
861.413	364.18
861.722	382.05
862.032	359.07
862.341	394.82
862.65	428.01
862.959	405.03
863.268	425.46
863.577	392.26
863.886	450.99
864.195	371.84
864.504	379.5
864.813	394.82
865.122	415.24
865.43	407.58
865.739	364.18
866.048	397.37
866.356	348.86
866.665	389.71
866.973	366.73
867.282	394.82
867.59	382.05
867.899	361.62
868.207	361.62
868.515	330.98
868.823	374.39
869.132	323.32
869.44	379.5
869.748	389.71
870.056	435.67
870.364	348.86
870.672	389.71
870.98	371.84
871.288	387.16
871.595	420.35
871.903	382.05
872.211	351.41
872.518	353.96
872.826	468.86
873.134	453.54
873.441	379.5
873.749	343.75
874.056	359.07
874.363	397.37
874.671	399.92
874.978	361.62
875.285	353.96
875.592	330.98
875.9	310.55
876.207	397.37
876.514	379.5
876.821	394.82
877.128	333.54
877.435	333.54
877.741	361.62
878.048	361.62
878.355	445.88
878.662	384.6
878.968	359.07
879.275	399.92
879.582	338.64
879.888	466.31
880.195	420.35
880.501	468.86
880.807	438.22
881.114	402.48
881.42	430.56
881.726	428.01
882.032	438.22
882.339	387.16
882.645	384.6
882.951	387.16
883.257	499.5
883.563	412.69
883.869	336.09
884.174	389.71
884.48	382.05
884.786	402.48
885.092	384.6
885.397	330.98
885.703	397.37
886.009	338.64
886.314	440.78
886.62	379.5
886.925	415.24
887.231	361.62
887.536	376.94
887.841	387.16
888.146	341.2
888.452	405.03
888.757	420.35
889.062	392.26
889.367	417.8
889.672	353.96
889.977	353.96
890.282	361.62
890.587	394.82
890.892	351.41
891.196	415.24
891.501	410.14
891.806	440.78
892.11	435.67
892.415	389.71
892.72	308
893.024	376.94
893.328	392.26
893.633	410.14
893.937	387.16
894.242	463.76
894.546	387.16
894.85	333.54
895.154	376.94
895.458	382.05
895.762	333.54
896.066	346.3
896.37	399.92
896.674	351.41
896.978	318.21
897.282	394.82
897.586	371.84
897.89	392.26
898.193	287.57
898.497	407.58
898.801	394.82
899.104	333.54
899.408	374.39
899.711	346.3
900.014	325.87
900.318	292.68
900.621	353.96
900.924	405.03
901.228	330.98
901.531	407.58
901.834	359.07
902.137	399.92
902.44	405.03
902.743	415.24
903.046	448.44
903.349	382.05
903.652	443.33
903.955	359.07
904.257	394.82
904.56	428.01
904.863	440.78
905.165	420.35
905.468	382.05
905.77	420.35
906.073	428.01
906.375	376.94
906.678	295.23
906.98	415.24
907.282	417.8
907.584	417.8
907.887	382.05
908.189	387.16
908.491	359.07
908.793	417.8
909.095	387.16
909.397	369.28
909.699	382.05
910.001	443.33
910.302	422.9
910.604	443.33
910.906	351.41
911.208	389.71
911.509	343.75
911.811	399.92
912.112	359.07
912.414	333.54
912.715	351.41
913.017	348.86
913.318	382.05
913.619	366.73
913.92	333.54
914.222	364.18
914.523	330.98
914.824	353.96
915.125	361.62
915.426	410.14
915.727	394.82
916.028	445.88
916.329	399.92
916.63	410.14
916.93	325.87
917.231	445.88
917.532	343.75
917.832	417.8
918.133	412.69
918.434	417.8
918.734	435.67
919.034	456.1
919.335	387.16
919.635	384.6
919.935	402.48
920.236	379.5
920.536	308
920.836	412.69
921.136	328.43
921.436	456.1
921.736	402.48
922.036	448.44
922.336	415.24
922.636	433.12
922.936	425.46
923.236	430.56
923.535	346.3
923.835	348.86
924.135	379.5
924.434	384.6
924.734	412.69
925.033	387.16
925.333	366.73
925.632	371.84
925.932	405.03
926.231	374.39
926.53	361.62
926.83	392.26
927.129	348.86
927.428	374.39
927.727	364.18
928.026	379.5
928.325	364.18
928.624	361.62
928.923	405.03
929.222	353.96
929.52	397.37
929.819	410.14
930.118	318.21
930.417	348.86
930.715	374.39
931.014	325.87
931.312	397.37
931.611	382.05
931.909	346.3
932.207	333.54
932.506	305.45
932.804	295.23
933.102	374.39
933.401	422.9
933.699	348.86
933.997	371.84
934.295	371.84
934.593	374.39
934.891	384.6
935.189	371.84
935.487	450.99
935.784	364.18
936.082	379.5
936.38	359.07
936.677	430.56
936.975	392.26
937.273	389.71
937.57	422.9
937.868	422.9
938.165	382.05
938.463	374.39
938.76	376.94
939.057	328.43
939.354	353.96
939.652	394.82
939.949	348.86
940.246	473.97
940.543	382.05
940.84	394.82
941.137	359.07
941.434	351.41
941.731	292.68
942.028	399.92
942.324	353.96
942.621	417.8
942.918	425.46
943.214	410.14
943.511	356.52
943.807	333.54
944.104	366.73
944.4	384.6
944.697	336.09
944.993	382.05
945.29	369.28
945.586	346.3
945.882	364.18
946.178	458.65
946.474	384.6
946.77	433.12
947.066	382.05
947.362	389.71
947.658	428.01
947.954	425.46
948.25	425.46
948.546	343.75
948.842	402.48
949.137	356.52
949.433	359.07
949.729	328.43
950.024	374.39
950.32	353.96
950.615	402.48
950.91	448.44
951.206	336.09
951.501	328.43
951.796	338.64
952.092	374.39
952.387	392.26
952.682	330.98
952.977	417.8
953.272	402.48
953.567	420.35
953.862	379.5
954.157	348.86
954.452	371.84
954.747	420.35
955.041	387.16
955.336	371.84
955.631	417.8
955.925	389.71
956.22	356.52
956.514	315.66
956.809	399.92
957.103	346.3
957.398	387.16
957.692	336.09
957.986	366.73
958.281	392.26
958.575	387.16
958.869	325.87
959.163	417.8
959.457	387.16
959.751	353.96
960.045	366.73
960.339	341.2
960.633	325.87
960.927	407.58
961.221	364.18
961.514	361.62
961.808	343.75
962.102	279.91
962.395	351.41
962.689	379.5
962.982	343.75
963.276	353.96
963.569	374.39
963.862	394.82
964.156	392.26
964.449	374.39
964.742	389.71
965.035	405.03
965.328	384.6
965.622	399.92
965.915	333.54
966.208	325.87
966.5	374.39
966.793	338.64
967.086	356.52
967.379	343.75
967.672	392.26
967.964	348.86
968.257	336.09
968.55	290.13
968.842	405.03
969.135	389.71
969.427	402.48
969.72	382.05
970.012	389.71
970.304	486.74
970.597	412.69
970.889	405.03
971.181	379.5
971.473	422.9
971.765	364.18
972.057	405.03
972.349	425.46
972.641	376.94
972.933	410.14
973.225	379.5
973.517	374.39
973.809	394.82
974.1	397.37
974.392	392.26
974.684	336.09
974.975	394.82
975.267	379.5
975.558	361.62
975.85	405.03
976.141	361.62
976.432	353.96
976.724	392.26
977.015	425.46
977.306	410.14
977.597	359.07
977.888	405.03
978.179	394.82
978.47	430.56
978.761	412.69
979.052	428.01
979.343	359.07
979.634	389.71
979.925	356.52
980.215	348.86
980.506	392.26
980.797	402.48
981.087	417.8
981.378	315.66
981.668	397.37
981.959	359.07
982.249	384.6
982.54	407.58
982.83	402.48
983.12	382.05
983.41	320.77
983.701	328.43
983.991	397.37
984.281	353.96
984.571	308
984.861	405.03
985.151	382.05
985.441	336.09
985.73	405.03
986.02	407.58
986.31	343.75
986.6	394.82
986.889	356.52
987.179	461.2
987.469	371.84
987.758	481.63
988.048	410.14
988.337	361.62
988.626	438.22
988.916	394.82
989.205	448.44
989.494	402.48
989.783	399.92
990.073	448.44
990.362	369.28
990.651	330.98
990.94	353.96
991.229	356.52
991.518	433.12
991.806	443.33
992.095	364.18
992.384	328.43
992.673	407.58
992.961	425.46
993.25	364.18
993.539	389.71
993.827	402.48
994.116	351.41
994.404	364.18
994.692	323.32
994.981	310.55
995.269	379.5
995.557	389.71
995.846	389.71
996.134	410.14
996.422	343.75
996.71	397.37
996.998	417.8
997.286	376.94
997.574	361.62
997.862	323.32
998.15	371.84
998.437	346.3
998.725	468.86
999.013	328.43
999.3	384.6
999.588	389.71
999.876	402.48
1000.163	351.41
1000.45	382.05
1000.738	369.28
1001.025	433.12
1001.313	445.88
1001.6	430.56
1001.887	410.14
1002.174	387.16
1002.461	384.6
1002.748	399.92
1003.036	371.84
1003.322	412.69
1003.609	356.52
1003.896	430.56
1004.183	417.8
1004.47	420.35
1004.757	450.99
1005.043	407.58
1005.33	376.94
1005.617	356.52
1005.903	382.05
1006.19	387.16
1006.476	330.98
1006.763	315.66
1007.049	336.09
1007.335	415.24
1007.622	351.41
1007.908	384.6
1008.194	336.09
1008.48	346.3
1008.766	338.64
1009.053	384.6
1009.339	359.07
1009.625	412.69
1009.91	371.84
1010.196	356.52
1010.482	348.86
1010.768	412.69
1011.054	333.54
1011.339	323.32
1011.625	361.62
1011.911	382.05
1012.196	359.07
1012.482	384.6
1012.767	399.92
1013.052	430.56
1013.338	323.32
1013.623	361.62
1013.908	389.71
1014.194	366.73
1014.479	346.3
1014.764	369.28
1015.049	369.28
1015.334	366.73
1015.619	361.62
1015.904	366.73
1016.189	412.69
1016.474	341.2
1016.758	458.65
1017.043	415.24
1017.328	376.94
1017.613	450.99
1017.897	415.24
1018.182	382.05
1018.466	369.28
1018.751	402.48
1019.035	376.94
1019.32	374.39
1019.604	384.6
1019.888	366.73
1020.172	366.73
1020.457	366.73
