Data from 2025-12-03_xpw_interference_micrometer_629_FLMS141361__2__22.txt Node

Date: Wed Dec 03 15:16:49 MST 2025
User: james
Spectrometer: FLMS14136
Trigger mode: 0
Integration Time (sec): 1.000000E-1
Scans to average: 1
Electric dark correction enabled: true
Nonlinearity correction enabled: false
Boxcar width: 0
XAxis mode: Wavelengths
Number of Pixels in Spectrum: 2048
>>>>>Begin Spectral Data<<<<<
339.315	-5.59
339.697	-5.59
340.079	-5.59
340.461	-105.17
340.843	-133.25
341.225	-138.36
341.607	-135.81
341.989	-89.85
342.371	-112.83
342.752	-105.17
343.134	-87.29
343.516	-31.12
343.897	27.61
344.279	27.61
344.661	30.16
345.042	14.84
345.423	94
345.805	71.02
346.186	173.15
346.567	63.36
346.949	198.68
347.33	180.81
347.711	139.96
348.092	165.49
348.473	252.31
348.854	214
349.235	254.86
349.616	290.61
349.997	257.41
350.378	244.65
350.758	354.44
351.139	328.91
351.52	280.39
351.9	277.84
352.281	308.48
352.661	346.78
353.042	298.27
353.422	346.78
353.803	415.72
354.183	328.91
354.563	354.44
354.943	369.76
355.324	303.37
355.704	362.1
356.084	374.87
356.464	372.31
356.844	492.32
357.224	474.45
357.603	377.42
357.983	305.93
358.363	387.63
358.743	379.97
359.122	428.49
359.502	359.55
359.882	344.23
360.261	364.65
360.641	339.12
361.02	323.8
361.399	318.69
361.779	387.63
362.158	351.89
362.537	369.76
362.916	331.46
363.296	385.08
363.675	344.23
364.054	336.57
364.433	313.59
364.812	377.42
365.19	341.67
365.569	356.99
365.948	262.52
366.327	265.07
366.705	364.65
367.084	285.5
367.463	328.91
367.841	326.35
368.22	262.52
368.598	351.89
368.977	318.69
369.355	277.84
369.733	344.23
370.111	326.35
370.49	336.57
370.868	339.12
371.246	323.8
371.624	356.99
372.002	385.08
372.38	323.8
372.758	236.99
373.136	321.25
373.513	374.87
373.891	341.67
374.269	331.46
374.646	313.59
375.024	372.31
375.402	362.1
375.779	377.42
376.157	423.38
376.534	351.89
376.911	362.1
377.289	295.71
377.666	405.51
378.043	356.99
378.42	377.42
378.797	326.35
379.175	405.51
379.552	300.82
379.929	328.91
380.305	374.87
380.682	339.12
381.059	408.06
381.436	336.57
381.813	308.48
382.189	321.25
382.566	318.69
382.943	328.91
383.319	359.55
383.696	328.91
384.072	300.82
384.448	390.19
384.825	318.69
385.201	334.01
385.577	313.59
385.953	367.21
386.329	313.59
386.706	318.69
387.082	351.89
387.458	280.39
387.834	313.59
388.209	346.78
388.585	369.76
388.961	372.31
389.337	397.85
389.713	372.31
390.088	390.19
390.464	334.01
390.839	387.63
391.215	349.33
391.59	331.46
391.966	349.33
392.341	423.38
392.716	431.04
393.092	369.76
393.467	336.57
393.842	303.37
394.217	265.07
394.592	328.91
394.967	364.65
395.342	334.01
395.717	448.92
396.092	395.29
396.467	313.59
396.841	372.31
397.216	367.21
397.591	339.12
397.965	362.1
398.34	413.17
398.714	392.74
399.089	334.01
399.463	349.33
399.838	356.99
400.212	326.35
400.586	321.25
400.961	351.89
401.335	359.55
401.709	303.37
402.083	323.8
402.457	326.35
402.831	377.42
403.205	420.83
403.579	413.17
403.953	336.57
404.326	339.12
404.7	277.84
405.074	385.08
405.447	311.03
405.821	334.01
406.195	369.76
406.568	405.51
406.942	464.24
407.315	336.57
407.688	382.53
408.062	344.23
408.435	362.1
408.808	331.46
409.181	415.72
409.554	346.78
409.927	356.99
410.3	336.57
410.673	377.42
411.046	392.74
411.419	415.72
411.792	415.72
412.165	318.69
412.537	369.76
412.91	331.46
413.283	382.53
413.655	362.1
414.028	405.51
414.4	395.29
414.773	428.49
415.145	356.99
415.517	356.99
415.889	387.63
416.262	387.63
416.634	395.29
417.006	390.19
417.378	379.97
417.75	385.08
418.122	344.23
418.494	382.53
418.866	431.04
419.238	405.51
419.609	382.53
419.981	362.1
420.353	423.38
420.725	456.58
421.096	408.06
421.468	413.17
421.839	392.74
422.211	346.78
422.582	367.21
422.953	364.65
423.325	331.46
423.696	372.31
424.067	369.76
424.438	349.33
424.809	423.38
425.18	356.99
425.551	438.7
425.922	339.12
426.293	344.23
426.664	433.6
427.035	477
427.406	369.76
427.776	451.47
428.147	372.31
428.518	459.13
428.888	387.63
429.259	436.15
429.629	471.9
429.999	397.85
430.37	379.97
430.74	354.44
431.11	356.99
431.481	354.44
431.851	385.08
432.221	364.65
432.591	402.95
432.961	400.4
433.331	408.06
433.701	397.85
434.071	341.67
434.441	413.17
434.81	364.65
435.18	446.36
435.55	313.59
435.919	372.31
436.289	367.21
436.658	397.85
437.028	326.35
437.397	377.42
437.767	326.35
438.136	379.97
438.505	425.94
438.875	405.51
439.244	390.19
439.613	425.94
439.982	400.4
440.351	392.74
440.72	377.42
441.089	415.72
441.458	362.1
441.827	354.44
442.196	321.25
442.564	436.15
442.933	423.38
443.302	326.35
443.67	377.42
444.039	346.78
444.407	402.95
444.776	321.25
445.144	334.01
445.513	400.4
445.881	359.55
446.249	326.35
446.617	454.02
446.986	372.31
447.354	369.76
447.722	410.62
448.09	334.01
448.458	351.89
448.826	433.6
449.194	446.36
449.561	400.4
449.929	402.95
450.297	408.06
450.665	387.63
451.032	387.63
451.4	415.72
451.767	382.53
452.135	374.87
452.502	415.72
452.87	344.23
453.237	392.74
453.604	351.89
453.971	331.46
454.339	331.46
454.706	433.6
455.073	413.17
455.44	387.63
455.807	362.1
456.174	377.42
456.541	433.6
456.908	402.95
457.274	369.76
457.641	341.67
458.008	410.62
458.374	402.95
458.741	418.28
459.108	395.29
459.474	433.6
459.841	385.08
460.207	392.74
460.573	359.55
460.94	397.85
461.306	377.42
461.672	377.42
462.038	377.42
462.404	410.62
462.771	390.19
463.137	461.68
463.503	374.87
463.868	420.83
464.234	354.44
464.6	405.51
464.966	379.97
465.332	408.06
465.697	400.4
466.063	372.31
466.429	372.31
466.794	395.29
467.16	395.29
467.525	390.19
467.89	351.89
468.256	336.57
468.621	331.46
468.986	311.03
469.351	405.51
469.717	377.42
470.082	390.19
470.447	356.99
470.812	408.06
471.177	438.7
471.542	436.15
471.906	431.04
472.271	405.51
472.636	441.26
473.001	400.4
473.365	454.02
473.73	364.65
474.094	443.81
474.459	415.72
474.823	364.65
475.188	469.34
475.552	413.17
475.917	438.7
476.281	413.17
476.645	443.81
477.009	420.83
477.373	464.24
477.737	344.23
478.101	362.1
478.465	392.74
478.829	400.4
479.193	397.85
479.557	423.38
479.921	408.06
480.284	382.53
480.648	425.94
481.012	369.76
481.375	418.28
481.739	385.08
482.102	311.03
482.466	346.78
482.829	451.47
483.193	405.51
483.556	387.63
483.919	341.67
484.282	344.23
484.645	379.97
485.009	418.28
485.372	379.97
485.735	428.49
486.098	311.03
486.46	390.19
486.823	405.51
487.186	487.22
487.549	328.91
487.912	356.99
488.274	415.72
488.637	295.71
488.999	275.29
489.362	364.65
489.724	400.4
490.087	382.53
490.449	339.12
490.811	436.15
491.174	408.06
491.536	400.4
491.898	351.89
492.26	441.26
492.622	336.57
492.984	344.23
493.346	405.51
493.708	367.21
494.07	344.23
494.432	400.4
494.794	423.38
495.155	428.49
495.517	359.55
495.879	372.31
496.24	410.62
496.602	377.42
496.963	379.97
497.325	328.91
497.686	418.28
498.048	395.29
498.409	354.44
498.77	344.23
499.131	446.36
499.492	349.33
499.854	408.06
500.215	377.42
500.576	408.06
500.937	459.13
501.298	334.01
501.658	420.83
502.019	359.55
502.38	323.8
502.741	415.72
503.101	423.38
503.462	390.19
503.823	471.9
504.183	438.7
504.543	336.57
504.904	402.95
505.264	420.83
505.625	390.19
505.985	415.72
506.345	364.65
506.705	413.17
507.065	369.76
507.426	354.44
507.786	382.53
508.146	413.17
508.505	367.21
508.865	359.55
509.225	423.38
509.585	520.41
509.945	489.77
510.304	390.19
510.664	395.29
511.024	362.1
511.383	364.65
511.743	344.23
512.102	395.29
512.462	479.56
512.821	474.45
513.18	397.85
513.539	387.63
513.899	408.06
514.258	436.15
514.617	382.53
514.976	364.65
515.335	390.19
515.694	451.47
516.053	413.17
516.412	372.31
516.771	362.1
517.129	420.83
517.488	410.62
517.847	428.49
518.205	372.31
518.564	392.74
518.922	364.65
519.281	385.08
519.639	379.97
519.998	346.78
520.356	454.02
520.714	387.63
521.073	362.1
521.431	349.33
521.789	374.87
522.147	443.81
522.505	446.36
522.863	372.31
523.221	477
523.579	423.38
523.937	408.06
524.295	331.46
524.652	402.95
525.01	372.31
525.368	362.1
525.725	385.08
526.083	413.17
526.44	372.31
526.798	443.81
527.155	428.49
527.513	351.89
527.87	351.89
528.227	326.35
528.584	356.99
528.942	436.15
529.299	402.95
529.656	413.17
530.013	400.4
530.37	405.51
530.727	459.13
531.083	367.21
531.44	326.35
531.797	323.8
532.154	326.35
532.511	369.76
532.867	374.87
533.224	369.76
533.58	367.21
533.937	369.76
534.293	400.4
534.65	346.78
535.006	374.87
535.362	349.33
535.718	369.76
536.075	369.76
536.431	436.15
536.787	316.14
537.143	425.94
537.499	364.65
537.855	374.87
538.211	336.57
538.567	354.44
538.923	367.21
539.278	402.95
539.634	372.31
539.99	379.97
540.345	397.85
540.701	420.83
541.056	418.28
541.412	346.78
541.767	334.01
542.123	379.97
542.478	369.76
542.833	415.72
543.188	318.69
543.544	448.92
543.899	425.94
544.254	385.08
544.609	408.06
544.964	344.23
545.319	349.33
545.674	351.89
546.029	351.89
546.383	349.33
546.738	423.38
547.093	425.94
547.447	377.42
547.802	367.21
548.157	364.65
548.511	362.1
548.866	418.28
549.22	420.83
549.574	374.87
549.929	346.78
550.283	336.57
550.637	318.69
550.991	349.33
551.345	397.85
551.699	441.26
552.053	405.51
552.407	369.76
552.761	410.62
553.115	425.94
553.469	374.87
553.823	367.21
554.176	390.19
554.53	431.04
554.884	448.92
555.237	571.48
555.591	456.58
555.944	400.4
556.298	405.51
556.651	461.68
557.005	354.44
557.358	356.99
557.711	400.4
558.064	346.78
558.417	385.08
558.771	469.34
559.124	431.04
559.477	451.47
559.83	385.08
560.182	428.49
560.535	379.97
560.888	379.97
561.241	405.51
561.594	377.42
561.946	374.87
562.299	436.15
562.651	441.26
563.004	408.06
563.356	374.87
563.709	367.21
564.061	423.38
564.413	364.65
564.766	415.72
565.118	362.1
565.47	451.47
565.822	372.31
566.174	362.1
566.526	367.21
566.878	387.63
567.23	364.65
567.582	382.53
567.934	346.78
568.286	400.4
568.638	395.29
568.989	351.89
569.341	356.99
569.693	425.94
570.044	390.19
570.396	377.42
570.747	413.17
571.098	379.97
571.45	469.34
571.801	354.44
572.152	441.26
572.504	341.67
572.855	420.83
573.206	415.72
573.557	356.99
573.908	369.76
574.259	356.99
574.61	364.65
574.961	356.99
575.311	395.29
575.662	441.26
576.013	395.29
576.364	408.06
576.714	364.65
577.065	346.78
577.415	359.55
577.766	402.95
578.116	410.62
578.467	367.21
578.817	441.26
579.167	349.33
579.518	397.85
579.868	328.91
580.218	425.94
580.568	425.94
580.918	425.94
581.268	364.65
581.618	339.12
581.968	392.74
582.318	382.53
582.668	408.06
583.017	382.53
583.367	405.51
583.717	413.17
584.066	372.31
584.416	374.87
584.765	341.67
585.115	377.42
585.464	387.63
585.814	336.57
586.163	459.13
586.512	443.81
586.862	410.62
587.211	369.76
587.56	379.97
587.909	446.36
588.258	433.6
588.607	344.23
588.956	410.62
589.305	344.23
589.654	408.06
590.002	438.7
590.351	387.63
590.7	420.83
591.048	387.63
591.397	487.22
591.746	328.91
592.094	441.26
592.443	400.4
592.791	334.01
593.139	372.31
593.488	364.65
593.836	400.4
594.184	354.44
594.532	418.28
594.88	438.7
595.228	362.1
595.576	364.65
595.924	423.38
596.272	354.44
596.62	415.72
596.968	305.93
597.316	341.67
597.664	418.28
598.011	392.74
598.359	326.35
598.706	349.33
599.054	402.95
599.402	420.83
599.749	367.21
600.096	313.59
600.444	374.87
600.791	433.6
601.138	395.29
601.485	405.51
601.833	408.06
602.18	402.95
602.527	408.06
602.874	438.7
603.221	392.74
603.568	344.23
603.914	408.06
604.261	369.76
604.608	477
604.955	367.21
605.301	331.46
605.648	385.08
605.995	374.87
606.341	367.21
606.688	379.97
607.034	387.63
607.38	356.99
607.727	367.21
608.073	395.29
608.419	385.08
608.765	379.97
609.112	349.33
609.458	323.8
609.804	367.21
610.15	392.74
610.496	369.76
610.842	461.68
611.187	382.53
611.533	369.76
611.879	362.1
612.225	482.11
612.57	420.83
612.916	382.53
613.261	400.4
613.607	423.38
613.952	385.08
614.298	425.94
614.643	351.89
614.989	328.91
615.334	326.35
615.679	372.31
616.024	372.31
616.369	326.35
616.714	385.08
617.059	369.76
617.404	397.85
617.749	392.74
618.094	374.87
618.439	356.99
618.784	379.97
619.129	379.97
619.473	300.82
619.818	382.53
620.163	451.47
620.507	431.04
620.852	379.97
621.196	351.89
621.54	377.42
621.885	374.87
622.229	451.47
622.573	354.44
622.918	433.6
623.262	400.4
623.606	413.17
623.95	328.91
624.294	305.93
624.638	341.67
624.982	420.83
625.326	408.06
625.67	436.15
626.013	461.68
626.357	372.31
626.701	293.16
627.044	425.94
627.388	341.67
627.731	349.33
628.075	382.53
628.418	402.95
628.762	372.31
629.105	367.21
629.448	374.87
629.792	372.31
630.135	433.6
630.478	397.85
630.821	339.12
631.164	418.28
631.507	372.31
631.85	305.93
632.193	359.55
632.536	400.4
632.879	349.33
633.221	356.99
633.564	318.69
633.907	405.51
634.249	390.19
634.592	364.65
634.935	339.12
635.277	415.72
635.619	346.78
635.962	400.4
636.304	392.74
636.646	334.01
636.989	438.7
637.331	359.55
637.673	385.08
638.015	392.74
638.357	433.6
638.699	425.94
639.041	395.29
639.383	326.35
639.725	316.14
640.067	362.1
640.408	285.5
640.75	346.78
641.092	390.19
641.433	425.94
641.775	346.78
642.116	425.94
642.458	425.94
642.799	385.08
643.141	382.53
643.482	420.83
643.823	346.78
644.164	464.24
644.506	469.34
644.847	402.95
645.188	410.62
645.529	415.72
645.87	402.95
646.211	359.55
646.552	408.06
646.893	374.87
647.233	382.53
647.574	377.42
647.915	420.83
648.255	339.12
648.596	443.81
648.937	382.53
649.277	298.27
649.618	334.01
649.958	400.4
650.298	351.89
650.639	387.63
650.979	395.29
651.319	402.95
651.659	379.97
651.999	377.42
652.339	385.08
652.679	372.31
653.019	351.89
653.359	369.76
653.699	410.62
654.039	362.1
654.379	408.06
654.719	392.74
655.058	349.33
655.398	395.29
655.737	433.6
656.077	395.29
656.416	402.95
656.756	410.62
657.095	408.06
657.435	392.74
657.774	372.31
658.113	341.67
658.452	374.87
658.792	359.55
659.131	377.42
659.47	331.46
659.809	418.28
660.148	331.46
660.487	385.08
660.826	436.15
661.164	362.1
661.503	359.55
661.842	387.63
662.181	311.03
662.519	351.89
662.858	372.31
663.196	328.91
663.535	354.44
663.873	408.06
664.212	382.53
664.55	372.31
664.888	461.68
665.226	392.74
665.565	405.51
665.903	499.98
666.241	382.53
666.579	405.51
666.917	448.92
667.255	408.06
667.593	405.51
667.931	499.98
668.268	413.17
668.606	349.33
668.944	405.51
669.282	331.46
669.619	379.97
669.957	392.74
670.294	323.8
670.632	341.67
670.969	346.78
671.307	405.51
671.644	321.25
671.981	377.42
672.318	356.99
672.656	339.12
672.993	387.63
673.33	387.63
673.667	379.97
674.004	369.76
674.341	379.97
674.678	385.08
675.015	420.83
675.351	420.83
675.688	374.87
676.025	425.94
676.362	413.17
676.698	318.69
677.035	369.76
677.371	418.28
677.708	346.78
678.044	382.53
678.38	303.37
678.717	410.62
679.053	318.69
679.389	410.62
679.725	341.67
680.062	382.53
680.398	400.4
680.734	349.33
681.07	349.33
681.406	336.57
681.742	356.99
682.077	313.59
682.413	298.27
682.749	369.76
683.085	420.83
683.42	374.87
683.756	341.67
684.091	425.94
684.427	374.87
684.762	425.94
685.098	408.06
685.433	351.89
685.768	413.17
686.104	367.21
686.439	321.25
686.774	354.44
687.109	402.95
687.444	362.1
687.779	349.33
688.114	423.38
688.449	454.02
688.784	397.85
689.119	387.63
689.454	374.87
689.789	356.99
690.123	346.78
690.458	354.44
690.792	415.72
691.127	402.95
691.461	374.87
691.796	400.4
692.13	336.57
692.465	392.74
692.799	397.85
693.133	346.78
693.467	349.33
693.802	390.19
694.136	326.35
694.47	374.87
694.804	379.97
695.138	456.58
695.472	461.68
695.806	379.97
696.139	387.63
696.473	385.08
696.807	356.99
697.141	390.19
697.474	339.12
697.808	461.68
698.141	413.17
698.475	385.08
698.808	369.76
699.142	282.95
699.475	334.01
699.808	367.21
700.142	408.06
700.475	349.33
700.808	341.67
701.141	356.99
701.474	328.91
701.807	374.87
702.14	379.97
702.473	351.89
702.806	415.72
703.139	349.33
703.472	413.17
703.804	374.87
704.137	387.63
704.47	387.63
704.802	334.01
705.135	387.63
705.467	351.89
705.8	364.65
706.132	369.76
706.464	418.28
706.797	369.76
707.129	356.99
707.461	362.1
707.793	395.29
708.125	405.51
708.457	410.62
708.789	359.55
709.121	377.42
709.453	397.85
709.785	341.67
710.117	349.33
710.449	369.76
710.781	349.33
711.112	359.55
711.444	367.21
711.775	395.29
712.107	390.19
712.438	379.97
712.77	405.51
713.101	390.19
713.433	367.21
713.764	354.44
714.095	334.01
714.426	438.7
714.757	313.59
715.089	385.08
715.42	321.25
715.751	392.74
716.082	415.72
716.412	341.67
716.743	377.42
717.074	372.31
717.405	397.85
717.736	408.06
718.066	413.17
718.397	410.62
718.727	367.21
719.058	334.01
719.388	420.83
719.719	326.35
720.049	328.91
720.38	369.76
720.71	336.57
721.04	339.12
721.37	374.87
721.7	349.33
722.031	359.55
722.361	369.76
722.691	395.29
723.021	346.78
723.35	277.84
723.68	379.97
724.01	364.65
724.34	326.35
724.67	323.8
724.999	359.55
725.329	359.55
725.658	418.28
725.988	369.76
726.317	377.42
726.647	349.33
726.976	400.4
727.306	344.23
727.635	369.76
727.964	328.91
728.293	349.33
728.622	436.15
728.952	408.06
729.281	369.76
729.61	364.65
729.939	354.44
730.267	397.85
730.596	349.33
730.925	364.65
731.254	372.31
731.583	346.78
731.911	334.01
732.24	344.23
732.568	428.49
732.897	392.74
733.225	410.62
733.554	408.06
733.882	377.42
734.21	328.91
734.539	433.6
734.867	369.76
735.195	349.33
735.523	374.87
735.851	436.15
736.179	326.35
736.507	420.83
736.835	308.48
737.163	402.95
737.491	408.06
737.819	313.59
738.147	369.76
738.474	425.94
738.802	438.7
739.13	339.12
739.457	387.63
739.785	410.62
740.112	397.85
740.44	395.29
740.767	400.4
741.094	364.65
741.422	349.33
741.749	395.29
742.076	367.21
742.403	349.33
742.73	377.42
743.057	385.08
743.384	336.57
743.711	415.72
744.038	385.08
744.365	425.94
744.692	387.63
745.018	344.23
745.345	402.95
745.672	413.17
745.998	423.38
746.325	400.4
746.651	372.31
746.978	356.99
747.304	418.28
747.631	382.53
747.957	328.91
748.283	382.53
748.61	395.29
748.936	303.37
749.262	372.31
749.588	400.4
749.914	351.89
750.24	321.25
750.566	418.28
750.892	351.89
751.218	349.33
751.543	331.46
751.869	372.31
752.195	379.97
752.521	367.21
752.846	344.23
753.172	387.63
753.497	362.1
753.823	410.62
754.148	364.65
754.473	377.42
754.799	339.12
755.124	336.57
755.449	354.44
755.774	428.49
756.1	354.44
756.425	400.4
756.75	385.08
757.075	408.06
757.4	482.11
757.724	346.78
758.049	349.33
758.374	362.1
758.699	405.51
759.024	400.4
759.348	441.26
759.673	415.72
759.997	356.99
760.322	387.63
760.646	405.51
760.971	395.29
761.295	392.74
761.619	354.44
761.944	461.68
762.268	413.17
762.592	443.81
762.916	428.49
763.24	413.17
763.564	415.72
763.888	382.53
764.212	402.95
764.536	431.04
764.86	413.17
765.184	418.28
765.508	423.38
765.831	433.6
766.155	686.38
766.478	556.16
766.802	502.54
767.126	551.05
767.449	520.41
767.772	533.18
768.096	637.87
768.419	660.85
768.742	727.23
769.066	762.98
769.389	757.87
769.712	837.03
770.035	857.46
770.358	941.72
770.681	1061.73
771.004	1130.67
771.327	1380.9
771.65	1559.64
771.972	1656.66
772.295	1876.25
772.618	2016.69
772.941	2024.35
773.263	2123.93
773.586	2279.69
773.908	2374.16
774.231	2573.33
774.553	2591.2
774.875	2821
775.198	3132.52
775.52	3181.03
775.842	3290.83
776.164	3421.05
776.487	3275.51
776.809	3196.35
777.131	3334.23
777.453	3709.58
777.775	4158.97
778.096	4202.38
778.418	4179.4
778.74	4416.87
779.062	4654.33
779.384	5022.02
779.705	5249.27
780.027	5466.3
780.348	5683.34
780.67	6030.6
780.991	5805.9
781.313	5752.28
781.634	6472.33
781.955	7082.59
782.277	7562.63
782.598	7741.36
782.919	7386.44
783.24	7072.38
783.561	6760.87
783.882	6811.93
784.203	7554.97
784.524	8229.06
784.845	8732.07
785.166	8479.29
785.487	8264.81
785.807	7889.46
786.128	7067.27
786.449	6799.17
786.769	6870.66
787.09	6411.05
787.41	7005.99
787.731	7340.48
788.051	7123.45
788.372	7174.51
788.692	7210.26
789.012	7120.89
789.332	6622.98
789.653	6755.76
789.973	6714.91
790.293	6845.13
790.613	6834.91
790.933	7057.06
791.253	6689.37
791.573	6275.72
791.893	6314.03
792.212	5726.75
792.532	5307.99
792.852	4797.32
793.171	4462.83
793.491	4347.92
793.811	4350.48
794.13	4192.17
794.45	4508.79
794.769	4393.88
795.088	4534.32
795.408	4398.99
795.727	4396.44
796.046	4263.66
796.365	4301.96
796.684	4460.27
797.004	4355.58
797.323	4192.17
797.642	4294.3
797.96	4174.29
798.279	4033.86
798.598	3977.68
798.917	3717.24
799.236	3242.31
799.554	2992.08
799.873	3020.17
800.192	2803.13
800.51	2657.59
800.829	2823.56
801.147	2683.12
801.466	2614.18
801.784	2491.62
802.102	2305.22
802.421	2215.85
802.739	1996.26
803.057	1917.11
803.375	1774.12
803.693	1756.25
804.011	1748.59
804.329	1751.14
804.647	1633.68
804.965	1592.83
805.283	1539.21
805.601	1656.66
805.918	1608.15
806.236	1508.57
806.554	1396.22
806.871	1250.68
807.189	1329.83
807.507	1306.85
807.824	1357.92
808.141	1327.28
808.459	1286.42
808.776	1334.94
809.093	1258.34
809.411	1217.48
809.728	1110.24
810.045	921.29
810.362	923.84
810.679	905.97
810.996	844.69
811.313	765.53
811.63	717.02
811.947	642.97
812.264	653.19
812.58	632.76
812.897	528.07
813.214	635.31
813.53	599.57
813.847	563.82
814.163	568.92
814.48	566.37
814.796	589.35
815.113	663.4
815.429	574.03
815.745	576.58
816.061	571.48
816.378	561.26
816.694	584.24
817.01	584.24
817.326	576.58
817.642	522.96
817.958	456.58
818.274	497.43
818.59	497.43
818.905	464.24
819.221	512.75
819.537	499.98
819.852	474.45
820.168	520.41
820.484	454.02
820.799	425.94
821.115	568.92
821.43	469.34
821.745	456.58
822.061	454.02
822.376	443.81
822.691	418.28
823.006	410.62
823.322	469.34
823.637	454.02
823.952	438.7
824.267	354.44
824.582	379.97
824.897	385.08
825.211	387.63
825.526	446.36
825.841	459.13
826.156	446.36
826.47	454.02
826.785	349.33
827.1	397.85
827.414	436.15
827.729	387.63
828.043	443.81
828.357	405.51
828.672	379.97
828.986	428.49
829.3	405.51
829.614	362.1
829.929	382.53
830.243	385.08
830.557	405.51
830.871	428.49
831.185	362.1
831.499	392.74
831.812	413.17
832.126	464.24
832.44	395.29
832.754	341.67
833.067	351.89
833.381	367.21
833.695	397.85
834.008	423.38
834.322	408.06
834.635	397.85
834.948	354.44
835.262	410.62
835.575	418.28
835.888	415.72
836.201	390.19
836.515	372.31
836.828	354.44
837.141	410.62
837.454	387.63
837.767	425.94
838.08	326.35
838.392	346.78
838.705	395.29
839.018	451.47
839.331	367.21
839.643	369.76
839.956	461.68
840.269	382.53
840.581	313.59
840.894	390.19
841.206	339.12
841.519	359.55
841.831	336.57
842.143	428.49
842.455	379.97
842.768	410.62
843.08	359.55
843.392	385.08
843.704	390.19
844.016	400.4
844.328	354.44
844.64	441.26
844.952	438.7
845.263	369.76
845.575	390.19
845.887	408.06
846.199	431.04
846.51	395.29
846.822	390.19
847.133	374.87
847.445	364.65
847.756	410.62
848.068	402.95
848.379	405.51
848.69	326.35
849.002	377.42
849.313	349.33
849.624	305.93
849.935	387.63
850.246	354.44
850.557	339.12
850.868	400.4
851.179	328.91
851.49	400.4
851.801	346.78
852.112	323.8
852.422	379.97
852.733	400.4
853.044	369.76
853.354	334.01
853.665	397.85
853.975	344.23
854.286	359.55
854.596	369.76
854.906	377.42
855.217	379.97
855.527	397.85
855.837	385.08
856.147	354.44
856.458	390.19
856.768	339.12
857.078	344.23
857.388	346.78
857.698	377.42
858.007	344.23
858.317	339.12
858.627	438.7
858.937	364.65
859.246	328.91
859.556	377.42
859.866	354.44
860.175	364.65
860.485	305.93
860.794	385.08
861.104	364.65
861.413	397.85
861.722	402.95
862.032	328.91
862.341	356.99
862.65	362.1
862.959	374.87
863.268	459.13
863.577	364.65
863.886	328.91
864.195	397.85
864.504	438.7
864.813	390.19
865.122	316.14
865.43	308.48
865.739	379.97
866.048	420.83
866.356	410.62
866.665	328.91
866.973	344.23
867.282	369.76
867.59	328.91
867.899	339.12
868.207	379.97
868.515	356.99
868.823	364.65
869.132	379.97
869.44	308.48
869.748	405.51
870.056	410.62
870.364	377.42
870.672	334.01
870.98	379.97
871.288	341.67
871.595	359.55
871.903	441.26
872.211	356.99
872.518	369.76
872.826	459.13
873.134	441.26
873.441	390.19
873.749	354.44
874.056	400.4
874.363	441.26
874.671	385.08
874.978	400.4
875.285	336.57
875.592	405.51
875.9	369.76
876.207	326.35
876.514	339.12
876.821	328.91
877.128	418.28
877.435	410.62
877.741	359.55
878.048	385.08
878.355	405.51
878.662	420.83
878.968	344.23
879.275	328.91
879.582	397.85
879.888	438.7
880.195	410.62
880.501	372.31
880.807	349.33
881.114	431.04
881.42	359.55
881.726	369.76
882.032	346.78
882.339	379.97
882.645	359.55
882.951	277.84
883.257	374.87
883.563	369.76
883.869	349.33
884.174	410.62
884.48	379.97
884.786	423.38
885.092	364.65
885.397	349.33
885.703	431.04
886.009	354.44
886.314	346.78
886.62	382.53
886.925	339.12
887.231	364.65
887.536	356.99
887.841	349.33
888.146	392.74
888.452	339.12
888.757	367.21
889.062	328.91
889.367	369.76
889.672	356.99
889.977	282.95
890.282	349.33
890.587	390.19
890.892	354.44
891.196	349.33
891.501	362.1
891.806	374.87
892.11	400.4
892.415	382.53
892.72	349.33
893.024	336.57
893.328	392.74
893.633	354.44
893.937	372.31
894.242	374.87
894.546	318.69
894.85	387.63
895.154	377.42
895.458	387.63
895.762	351.89
896.066	349.33
896.37	410.62
896.674	364.65
896.978	379.97
897.282	387.63
897.586	328.91
897.89	328.91
898.193	433.6
898.497	379.97
898.801	420.83
899.104	359.55
899.408	374.87
899.711	336.57
900.014	359.55
900.318	385.08
900.621	364.65
900.924	346.78
901.228	364.65
901.531	364.65
901.834	382.53
902.137	448.92
902.44	364.65
902.743	346.78
903.046	367.21
903.349	459.13
903.652	400.4
903.955	346.78
904.257	415.72
904.56	420.83
904.863	354.44
905.165	379.97
905.468	379.97
905.77	300.82
906.073	364.65
906.375	377.42
906.678	328.91
906.98	400.4
907.282	362.1
907.584	397.85
907.887	359.55
908.189	410.62
908.491	436.15
908.793	372.31
909.095	400.4
909.397	415.72
909.699	451.47
910.001	382.53
910.302	387.63
910.604	420.83
910.906	351.89
911.208	318.69
911.509	331.46
911.811	354.44
912.112	369.76
912.414	408.06
912.715	436.15
913.017	418.28
913.318	311.03
913.619	436.15
913.92	395.29
914.222	377.42
914.523	390.19
914.824	402.95
915.125	372.31
915.426	402.95
915.727	410.62
916.028	390.19
916.329	362.1
916.63	392.74
916.93	392.74
917.231	328.91
917.532	359.55
917.832	295.71
918.133	392.74
918.434	377.42
918.734	390.19
919.034	374.87
919.335	359.55
919.635	336.57
919.935	405.51
920.236	410.62
920.536	351.89
920.836	374.87
921.136	374.87
921.436	499.98
921.736	415.72
922.036	413.17
922.336	351.89
922.636	372.31
922.936	359.55
923.236	413.17
923.535	433.6
923.835	402.95
924.135	372.31
924.434	364.65
924.734	351.89
925.033	367.21
925.333	377.42
925.632	408.06
925.932	387.63
926.231	428.49
926.53	339.12
926.83	410.62
927.129	395.29
927.428	379.97
927.727	405.51
928.026	405.51
928.325	379.97
928.624	336.57
928.923	334.01
929.222	448.92
929.52	402.95
929.819	390.19
930.118	359.55
930.417	402.95
930.715	339.12
931.014	367.21
931.312	410.62
931.611	323.8
931.909	402.95
932.207	385.08
932.506	349.33
932.804	400.4
933.102	346.78
933.401	346.78
933.699	362.1
933.997	339.12
934.295	415.72
934.593	359.55
934.891	420.83
935.189	331.46
935.487	441.26
935.784	438.7
936.082	395.29
936.38	334.01
936.677	418.28
936.975	339.12
937.273	349.33
937.57	428.49
937.868	331.46
938.165	395.29
938.463	374.87
938.76	364.65
939.057	395.29
939.354	423.38
939.652	372.31
939.949	367.21
940.246	300.82
940.543	346.78
940.84	402.95
941.137	321.25
941.434	379.97
941.731	397.85
942.028	400.4
942.324	367.21
942.621	285.5
942.918	425.94
943.214	431.04
943.511	374.87
943.807	313.59
944.104	359.55
944.4	341.67
944.697	344.23
944.993	362.1
945.29	418.28
945.586	379.97
945.882	346.78
946.178	356.99
946.474	413.17
946.77	461.68
947.066	405.51
947.362	374.87
947.658	420.83
947.954	387.63
948.25	425.94
948.546	341.67
948.842	305.93
949.137	308.48
949.433	344.23
949.729	336.57
950.024	433.6
950.32	410.62
950.615	339.12
950.91	367.21
951.206	318.69
951.501	433.6
951.796	395.29
952.092	334.01
952.387	354.44
952.682	369.76
952.977	351.89
953.272	316.14
953.567	423.38
953.862	397.85
954.157	410.62
954.452	392.74
954.747	390.19
955.041	341.67
955.336	349.33
955.631	364.65
955.925	367.21
956.22	379.97
956.514	454.02
956.809	405.51
957.103	499.98
957.398	487.22
957.692	328.91
957.986	362.1
958.281	362.1
958.575	344.23
958.869	418.28
959.163	354.44
959.457	356.99
959.751	402.95
960.045	392.74
960.339	487.22
960.633	377.42
960.927	369.76
961.221	418.28
961.514	392.74
961.808	341.67
962.102	395.29
962.395	374.87
962.689	359.55
962.982	367.21
963.276	362.1
963.569	295.71
963.862	346.78
964.156	385.08
964.449	395.29
964.742	346.78
965.035	293.16
965.328	323.8
965.622	295.71
965.915	362.1
966.208	385.08
966.5	326.35
966.793	413.17
967.086	344.23
967.379	341.67
967.672	300.82
967.964	405.51
968.257	351.89
968.55	372.31
968.842	336.57
969.135	382.53
969.427	331.46
969.72	377.42
970.012	408.06
970.304	359.55
970.597	377.42
970.889	382.53
971.181	390.19
971.473	369.76
971.765	369.76
972.057	359.55
972.349	316.14
972.641	349.33
972.933	349.33
973.225	451.47
973.517	318.69
973.809	395.29
974.1	359.55
974.392	400.4
974.684	369.76
974.975	410.62
975.267	351.89
975.558	339.12
975.85	379.97
976.141	410.62
976.432	385.08
976.724	331.46
977.015	379.97
977.306	323.8
977.597	328.91
977.888	367.21
978.179	341.67
978.47	298.27
978.761	356.99
979.052	410.62
979.343	410.62
979.634	428.49
979.925	369.76
980.215	385.08
980.506	359.55
980.797	359.55
981.087	323.8
981.378	308.48
981.668	372.31
981.959	359.55
982.249	369.76
982.54	433.6
982.83	395.29
983.12	423.38
983.41	379.97
983.701	431.04
983.991	362.1
984.281	336.57
984.571	346.78
984.861	369.76
985.151	318.69
985.441	331.46
985.73	349.33
986.02	349.33
986.31	359.55
986.6	334.01
986.889	387.63
987.179	288.05
987.469	359.55
987.758	431.04
988.048	402.95
988.337	354.44
988.626	288.05
988.916	277.84
989.205	385.08
989.494	413.17
989.783	402.95
990.073	405.51
990.362	431.04
990.651	438.7
990.94	408.06
991.229	321.25
991.518	408.06
991.806	374.87
992.095	369.76
992.384	359.55
992.673	311.03
992.961	374.87
993.25	336.57
993.539	369.76
993.827	364.65
994.116	346.78
994.404	382.53
994.692	344.23
994.981	359.55
995.269	443.81
995.557	379.97
995.846	351.89
996.134	331.46
996.422	420.83
996.71	372.31
996.998	344.23
997.286	331.46
997.574	382.53
997.862	390.19
998.15	341.67
998.437	362.1
998.725	326.35
999.013	367.21
999.3	323.8
999.588	428.49
999.876	423.38
1000.163	359.55
1000.45	441.26
1000.738	270.18
1001.025	277.84
1001.313	316.14
1001.6	308.48
1001.887	354.44
1002.174	311.03
1002.461	400.4
1002.748	349.33
1003.036	410.62
1003.322	387.63
1003.609	331.46
1003.896	369.76
1004.183	313.59
1004.47	390.19
1004.757	369.76
1005.043	377.42
1005.33	344.23
1005.617	367.21
1005.903	379.97
1006.19	364.65
1006.476	385.08
1006.763	316.14
1007.049	328.91
1007.335	359.55
1007.622	397.85
1007.908	392.74
1008.194	385.08
1008.48	344.23
1008.766	420.83
1009.053	374.87
1009.339	362.1
1009.625	336.57
1009.91	423.38
1010.196	369.76
1010.482	392.74
1010.768	331.46
1011.054	349.33
1011.339	413.17
1011.625	374.87
1011.911	346.78
1012.196	356.99
1012.482	339.12
1012.767	382.53
1013.052	469.34
1013.338	415.72
1013.623	272.73
1013.908	318.69
1014.194	402.95
1014.479	334.01
1014.764	362.1
1015.049	362.1
1015.334	390.19
1015.619	377.42
1015.904	387.63
1016.189	346.78
1016.474	392.74
1016.758	385.08
1017.043	359.55
1017.328	359.55
1017.613	369.76
1017.897	336.57
1018.182	346.78
1018.466	344.23
1018.751	405.51
1019.035	344.23
1019.32	369.76
1019.604	323.8
1019.888	316.14
1020.172	316.14
1020.457	316.14
