Data from 2025-12-03_xpw_interference_micrometer_650_FLMS141361__1__07.txt Node

Date: Wed Dec 03 15:07:54 MST 2025
User: james
Spectrometer: FLMS14136
Trigger mode: 0
Integration Time (sec): 1.000000E-1
Scans to average: 1
Electric dark correction enabled: true
Nonlinearity correction enabled: false
Boxcar width: 0
XAxis mode: Wavelengths
Number of Pixels in Spectrum: 2048
>>>>>Begin Spectral Data<<<<<
339.315	11.97
339.697	11.97
340.079	11.97
340.461	-87.61
340.843	-108.04
341.225	-92.72
341.607	-49.31
341.989	-143.79
342.371	-108.04
342.752	-77.4
343.134	-49.31
343.516	-62.08
343.897	-13.56
344.279	9.42
344.661	86.02
345.042	-51.87
345.423	42.61
345.805	88.57
346.186	88.57
346.567	142.19
346.949	190.71
347.33	218.79
347.711	195.81
348.092	323.48
348.473	257.09
348.854	257.09
349.235	264.75
349.616	336.25
349.997	287.73
350.378	274.97
350.758	336.25
351.139	359.23
351.52	333.69
351.9	366.89
352.281	435.83
352.661	333.69
353.042	366.89
353.422	410.3
353.803	384.76
354.183	384.76
354.563	440.94
354.943	415.4
355.324	423.06
355.704	394.98
356.084	374.55
356.464	372
356.844	410.3
357.224	392.42
357.603	389.87
357.983	384.76
358.363	392.42
358.743	361.78
359.122	423.06
359.502	423.06
359.882	440.94
360.261	443.49
360.641	397.53
361.02	372
361.399	453.7
361.779	438.38
362.158	453.7
362.537	359.23
362.916	402.64
363.296	392.42
363.675	313.27
364.054	428.17
364.433	402.64
364.812	372
365.19	407.74
365.569	364.34
365.948	400.08
366.327	356.67
366.705	331.14
367.084	318.37
367.463	394.98
367.841	423.06
368.22	389.87
368.598	372
368.977	336.25
369.355	410.3
369.733	423.06
370.111	372
370.49	341.35
370.868	389.87
371.246	377.1
371.624	402.64
372.002	366.89
372.38	387.32
372.758	443.49
373.136	384.76
373.513	341.35
373.891	394.98
374.269	328.59
374.646	412.85
375.024	394.98
375.402	382.21
375.779	318.37
376.157	412.85
376.534	402.64
376.911	425.62
377.289	417.96
377.666	412.85
378.043	372
378.42	407.74
378.797	338.8
379.175	318.37
379.552	387.32
379.929	412.85
380.305	364.34
380.682	372
381.059	382.21
381.436	359.23
381.813	417.96
382.189	374.55
382.566	336.25
382.943	382.21
383.319	412.85
383.696	451.15
384.072	440.94
384.448	446.04
384.825	443.49
385.201	448.6
385.577	428.17
385.953	392.42
386.329	415.4
386.706	402.64
387.082	430.72
387.458	430.72
387.834	382.21
388.209	502.22
388.585	397.53
388.961	397.53
389.337	443.49
389.713	397.53
390.088	366.89
390.464	374.55
390.839	364.34
391.215	417.96
391.59	384.76
391.966	425.62
392.341	389.87
392.716	415.4
393.092	359.23
393.467	354.12
393.842	420.51
394.217	474.13
394.592	400.08
394.967	366.89
395.342	389.87
395.717	397.53
396.092	320.93
396.467	402.64
396.841	354.12
397.216	387.32
397.591	389.87
397.965	402.64
398.34	382.21
398.714	384.76
399.089	410.3
399.463	372
399.838	474.13
400.212	382.21
400.586	435.83
400.961	382.21
401.335	428.17
401.709	407.74
402.083	438.38
402.457	359.23
402.831	407.74
403.205	446.04
403.579	410.3
403.953	435.83
404.326	397.53
404.7	420.51
405.074	430.72
405.447	346.46
405.821	389.87
406.195	354.12
406.568	377.1
406.942	489.45
407.315	430.72
407.688	463.92
408.062	435.83
408.435	359.23
408.808	354.12
409.181	402.64
409.554	417.96
409.927	461.36
410.3	397.53
410.673	343.91
411.046	382.21
411.419	369.44
411.792	372
412.165	420.51
412.537	492
412.91	443.49
413.283	417.96
413.655	433.28
414.028	474.13
414.4	448.6
414.773	372
415.145	415.4
415.517	448.6
415.889	387.32
416.262	430.72
416.634	392.42
417.006	394.98
417.378	456.26
417.75	394.98
418.122	438.38
418.494	417.96
418.866	389.87
419.238	481.79
419.609	374.55
419.981	313.27
420.353	369.44
420.725	392.42
421.096	392.42
421.468	456.26
421.839	461.36
422.211	474.13
422.582	443.49
422.953	412.85
423.325	384.76
423.696	423.06
424.067	397.53
424.438	356.67
424.809	438.38
425.18	440.94
425.551	377.1
425.922	486.9
426.293	369.44
426.664	430.72
427.035	428.17
427.406	313.27
427.776	451.15
428.147	428.17
428.518	382.21
428.888	394.98
429.259	476.68
429.629	417.96
429.999	410.3
430.37	474.13
430.74	476.68
431.11	430.72
431.481	486.9
431.851	433.28
432.221	417.96
432.591	420.51
432.961	428.17
433.331	486.9
433.701	423.06
434.071	400.08
434.441	494.56
434.81	405.19
435.18	451.15
435.55	438.38
435.919	443.49
436.289	423.06
436.658	446.04
437.028	448.6
437.397	420.51
437.767	417.96
438.136	407.74
438.505	384.76
438.875	400.08
439.244	402.64
439.613	435.83
439.982	456.26
440.351	394.98
440.72	469.02
441.089	428.17
441.458	410.3
441.827	430.72
442.196	446.04
442.564	476.68
442.933	394.98
443.302	423.06
443.67	417.96
444.039	384.76
444.407	440.94
444.776	451.15
445.144	448.6
445.513	410.3
445.881	481.79
446.249	402.64
446.617	397.53
446.986	476.68
447.354	499.66
447.722	433.28
448.09	438.38
448.458	384.76
448.826	440.94
449.194	400.08
449.561	499.66
449.929	435.83
450.297	430.72
450.665	397.53
451.032	387.32
451.4	425.62
451.767	420.51
452.135	382.21
452.502	440.94
452.87	435.83
453.237	400.08
453.604	361.78
453.971	453.7
454.339	448.6
454.706	425.62
455.073	417.96
455.44	428.17
455.807	469.02
456.174	481.79
456.541	440.94
456.908	420.51
457.274	435.83
457.641	430.72
458.008	407.74
458.374	484.34
458.741	423.06
459.108	522.64
459.474	469.02
459.841	486.9
460.207	448.6
460.573	438.38
460.94	489.45
461.306	471.58
461.672	440.94
462.038	435.83
462.404	425.62
462.771	435.83
463.137	458.81
463.503	423.06
463.868	369.44
464.234	435.83
464.6	425.62
464.966	425.62
465.332	458.81
465.697	382.21
466.063	456.26
466.429	446.04
466.794	451.15
467.16	446.04
467.525	366.89
467.89	374.55
468.256	466.47
468.621	423.06
468.986	379.66
469.351	405.19
469.717	456.26
470.082	379.66
470.447	407.74
470.812	428.17
471.177	400.08
471.542	466.47
471.906	377.1
472.271	440.94
472.636	456.26
473.001	407.74
473.365	410.3
473.73	435.83
474.094	494.56
474.459	379.66
474.823	400.08
475.188	412.85
475.552	410.3
475.917	387.32
476.281	433.28
476.645	469.02
477.009	417.96
477.373	453.7
477.737	466.47
478.101	412.85
478.465	471.58
478.829	451.15
479.193	453.7
479.557	522.64
479.921	453.7
480.284	433.28
480.648	463.92
481.012	423.06
481.375	453.7
481.739	474.13
482.102	469.02
482.466	453.7
482.829	540.52
483.193	423.06
483.556	392.42
483.919	394.98
484.282	423.06
484.645	435.83
485.009	463.92
485.372	402.64
485.735	461.36
486.098	448.6
486.46	420.51
486.823	387.32
487.186	392.42
487.549	412.85
487.912	451.15
488.274	423.06
488.637	400.08
488.999	474.13
489.362	443.49
489.724	443.49
490.087	438.38
490.449	494.56
490.811	366.89
491.174	407.74
491.536	351.57
491.898	420.51
492.26	433.28
492.622	476.68
492.984	415.4
493.346	423.06
493.708	397.53
494.07	407.74
494.432	420.51
494.794	374.55
495.155	397.53
495.517	451.15
495.879	537.96
496.24	443.49
496.602	440.94
496.963	461.36
497.325	443.49
497.686	481.79
498.048	438.38
498.409	392.42
498.77	479.24
499.131	484.34
499.492	484.34
499.854	476.68
500.215	448.6
500.576	425.62
500.937	397.53
501.298	484.34
501.658	420.51
502.019	400.08
502.38	420.51
502.741	410.3
503.101	453.7
503.462	372
503.823	484.34
504.183	387.32
504.543	402.64
504.904	428.17
505.264	453.7
505.625	412.85
505.985	446.04
506.345	433.28
506.705	446.04
507.065	438.38
507.426	443.49
507.786	420.51
508.146	448.6
508.505	425.62
508.865	440.94
509.225	438.38
509.585	530.3
509.945	435.83
510.304	522.64
510.664	412.85
511.024	420.51
511.383	512.43
511.743	420.51
512.102	438.38
512.462	412.85
512.821	469.02
513.18	428.17
513.539	433.28
513.899	461.36
514.258	474.13
514.617	476.68
514.976	430.72
515.335	412.85
515.694	407.74
516.053	402.64
516.412	446.04
516.771	412.85
517.129	504.77
517.488	461.36
517.847	428.17
518.205	456.26
518.564	438.38
518.922	428.17
519.281	474.13
519.639	451.15
519.998	425.62
520.356	420.51
520.714	507.32
521.073	453.7
521.431	402.64
521.789	384.76
522.147	428.17
522.505	394.98
522.863	382.21
523.221	453.7
523.579	359.23
523.937	400.08
524.295	456.26
524.652	489.45
525.01	402.64
525.368	407.74
525.725	469.02
526.083	456.26
526.44	425.62
526.798	423.06
527.155	435.83
527.513	384.76
527.87	420.51
528.227	471.58
528.584	387.32
528.942	456.26
529.299	481.79
529.656	392.42
530.013	448.6
530.37	425.62
530.727	466.47
531.083	438.38
531.44	417.96
531.797	410.3
532.154	456.26
532.511	446.04
532.867	400.08
533.224	430.72
533.58	423.06
533.937	415.4
534.293	389.87
534.65	377.1
535.006	423.06
535.362	463.92
535.718	440.94
536.075	397.53
536.431	430.72
536.787	438.38
537.143	443.49
537.499	428.17
537.855	430.72
538.211	438.38
538.567	384.76
538.923	443.49
539.278	410.3
539.634	428.17
539.99	420.51
540.345	420.51
540.701	423.06
541.056	417.96
541.412	415.4
541.767	438.38
542.123	443.49
542.478	428.17
542.833	435.83
543.188	522.64
543.544	466.47
543.899	469.02
544.254	369.44
544.609	415.4
544.964	428.17
545.319	415.4
545.674	425.62
546.029	397.53
546.383	461.36
546.738	451.15
547.093	415.4
547.447	430.72
547.802	410.3
548.157	412.85
548.511	428.17
548.866	333.69
549.22	366.89
549.574	469.02
549.929	469.02
550.283	461.36
550.637	451.15
550.991	492
551.345	400.08
551.699	400.08
552.053	453.7
552.407	453.7
552.761	382.21
553.115	407.74
553.469	402.64
553.823	382.21
554.176	448.6
554.53	428.17
554.884	430.72
555.237	678.4
555.591	474.13
555.944	476.68
556.298	507.32
556.651	509.88
557.005	458.81
557.358	474.13
557.711	461.36
558.064	415.4
558.417	384.76
558.771	548.18
559.124	474.13
559.477	361.78
559.83	430.72
560.182	410.3
560.535	430.72
560.888	428.17
561.241	382.21
561.594	382.21
561.946	443.49
562.299	377.1
562.651	461.36
563.004	366.89
563.356	366.89
563.709	438.38
564.061	435.83
564.413	438.38
564.766	481.79
565.118	497.11
565.47	446.04
565.822	400.08
566.174	446.04
566.526	366.89
566.878	405.19
567.23	466.47
567.582	397.53
567.934	379.66
568.286	440.94
568.638	435.83
568.989	481.79
569.341	451.15
569.693	438.38
570.044	428.17
570.396	451.15
570.747	509.88
571.098	433.28
571.45	374.55
571.801	420.51
572.152	351.57
572.504	415.4
572.855	453.7
573.206	410.3
573.557	443.49
573.908	443.49
574.259	471.58
574.61	387.32
574.961	402.64
575.311	453.7
575.662	499.66
576.013	458.81
576.364	420.51
576.714	443.49
577.065	494.56
577.415	410.3
577.766	466.47
578.116	382.21
578.467	392.42
578.817	469.02
579.167	469.02
579.518	486.9
579.868	484.34
580.218	382.21
580.568	379.66
580.918	430.72
581.268	405.19
581.618	433.28
581.968	412.85
582.318	438.38
582.668	484.34
583.017	369.44
583.367	382.21
583.717	428.17
584.066	440.94
584.416	479.24
584.765	428.17
585.115	423.06
585.464	435.83
585.814	402.64
586.163	440.94
586.512	451.15
586.862	438.38
587.211	476.68
587.56	366.89
587.909	428.17
588.258	469.02
588.607	461.36
588.956	466.47
589.305	420.51
589.654	430.72
590.002	430.72
590.351	463.92
590.7	420.51
591.048	479.24
591.397	469.02
591.746	463.92
592.094	520.09
592.443	433.28
592.791	471.58
593.139	430.72
593.488	407.74
593.836	369.44
594.184	469.02
594.532	428.17
594.88	438.38
595.228	435.83
595.576	423.06
595.924	328.59
596.272	446.04
596.62	410.3
596.968	446.04
597.316	423.06
597.664	407.74
598.011	461.36
598.359	423.06
598.706	384.76
599.054	428.17
599.402	420.51
599.749	392.42
600.096	428.17
600.444	400.08
600.791	425.62
601.138	387.32
601.485	412.85
601.833	425.62
602.18	443.49
602.527	405.19
602.874	430.72
603.221	417.96
603.568	405.19
603.914	474.13
604.261	440.94
604.608	407.74
604.955	446.04
605.301	476.68
605.648	458.81
605.995	433.28
606.341	440.94
606.688	446.04
607.034	430.72
607.38	435.83
607.727	453.7
608.073	423.06
608.419	394.98
608.765	382.21
609.112	461.36
609.458	484.34
609.804	417.96
610.15	456.26
610.496	469.02
610.842	448.6
611.187	443.49
611.533	451.15
611.879	446.04
612.225	430.72
612.57	435.83
612.916	499.66
613.261	402.64
613.607	435.83
613.952	458.81
614.298	400.08
614.643	430.72
614.989	438.38
615.334	435.83
615.679	471.58
616.024	443.49
616.369	423.06
616.714	410.3
617.059	364.34
617.404	417.96
617.749	458.81
618.094	397.53
618.439	372
618.784	384.76
619.129	374.55
619.473	430.72
619.818	471.58
620.163	407.74
620.507	389.87
620.852	420.51
621.196	433.28
621.54	423.06
621.885	481.79
622.229	438.38
622.573	443.49
622.918	428.17
623.262	484.34
623.606	397.53
623.95	435.83
624.294	392.42
624.638	476.68
624.982	438.38
625.326	374.55
625.67	389.87
626.013	346.46
626.357	379.66
626.701	400.08
627.044	389.87
627.388	397.53
627.731	481.79
628.075	392.42
628.418	433.28
628.762	428.17
629.105	389.87
629.448	392.42
629.792	489.45
630.135	463.92
630.478	384.76
630.821	366.89
631.164	438.38
631.507	430.72
631.85	402.64
632.193	410.3
632.536	410.3
632.879	456.26
633.221	448.6
633.564	463.92
633.907	417.96
634.249	423.06
634.592	425.62
634.935	476.68
635.277	474.13
635.619	420.51
635.962	397.53
636.304	405.19
636.646	359.23
636.989	412.85
637.331	433.28
637.673	471.58
638.015	425.62
638.357	392.42
638.699	397.53
639.041	377.1
639.383	428.17
639.725	374.55
640.067	392.42
640.408	435.83
640.75	374.55
641.092	420.51
641.433	430.72
641.775	407.74
642.116	425.62
642.458	420.51
642.799	463.92
643.141	448.6
643.482	420.51
643.823	466.47
644.164	402.64
644.506	448.6
644.847	405.19
645.188	453.7
645.529	384.76
645.87	433.28
646.211	415.4
646.552	420.51
646.893	346.46
647.233	400.08
647.574	428.17
647.915	440.94
648.255	474.13
648.596	451.15
648.937	428.17
649.277	349.01
649.618	428.17
649.958	535.41
650.298	458.81
650.639	440.94
650.979	412.85
651.319	435.83
651.659	407.74
651.999	394.98
652.339	402.64
652.679	412.85
653.019	410.3
653.359	354.12
653.699	384.76
654.039	417.96
654.379	438.38
654.719	346.46
655.058	374.55
655.398	435.83
655.737	440.94
656.077	354.12
656.416	425.62
656.756	420.51
657.095	364.34
657.435	377.1
657.774	405.19
658.113	446.04
658.452	382.21
658.792	420.51
659.131	394.98
659.47	486.9
659.809	405.19
660.148	499.66
660.487	407.74
660.826	394.98
661.164	384.76
661.503	384.76
661.842	430.72
662.181	349.01
662.519	389.87
662.858	451.15
663.196	405.19
663.535	423.06
663.873	412.85
664.212	443.49
664.55	433.28
664.888	440.94
665.226	469.02
665.565	412.85
665.903	560.95
666.241	469.02
666.579	402.64
666.917	405.19
667.255	448.6
667.593	451.15
667.931	461.36
668.268	320.93
668.606	410.3
668.944	430.72
669.282	448.6
669.619	407.74
669.957	397.53
670.294	412.85
670.632	428.17
670.969	451.15
671.307	502.22
671.644	456.26
671.981	443.49
672.318	400.08
672.656	428.17
672.993	443.49
673.33	456.26
673.667	402.64
674.004	392.42
674.341	369.44
674.678	423.06
675.015	400.08
675.351	387.32
675.688	407.74
676.025	494.56
676.362	453.7
676.698	438.38
677.035	374.55
677.371	343.91
677.708	356.67
678.044	382.21
678.38	425.62
678.717	400.08
679.053	389.87
679.389	410.3
679.725	474.13
680.062	512.43
680.398	433.28
680.734	458.81
681.07	397.53
681.406	453.7
681.742	417.96
682.077	443.49
682.413	410.3
682.749	415.4
683.085	407.74
683.42	389.87
683.756	417.96
684.091	423.06
684.427	435.83
684.762	405.19
685.098	361.78
685.433	394.98
685.768	433.28
686.104	394.98
686.439	430.72
686.774	428.17
687.109	379.66
687.444	392.42
687.779	389.87
688.114	469.02
688.449	394.98
688.784	453.7
689.119	453.7
689.454	387.32
689.789	430.72
690.123	471.58
690.458	377.1
690.792	443.49
691.127	430.72
691.461	509.88
691.796	356.67
692.13	379.66
692.465	351.57
692.799	392.42
693.133	486.9
693.467	435.83
693.802	479.24
694.136	438.38
694.47	397.53
694.804	389.87
695.138	415.4
695.472	435.83
695.806	435.83
696.139	461.36
696.473	346.46
696.807	389.87
697.141	400.08
697.474	400.08
697.808	443.49
698.141	430.72
698.475	402.64
698.808	433.28
699.142	428.17
699.475	392.42
699.808	407.74
700.142	479.24
700.475	448.6
700.808	384.76
701.141	366.89
701.474	389.87
701.807	410.3
702.14	384.76
702.473	359.23
702.806	410.3
703.139	397.53
703.472	479.24
703.804	440.94
704.137	407.74
704.47	463.92
704.802	486.9
705.135	410.3
705.467	443.49
705.8	492
706.132	443.49
706.464	374.55
706.797	443.49
707.129	458.81
707.461	382.21
707.793	458.81
708.125	389.87
708.457	433.28
708.789	486.9
709.121	336.25
709.453	420.51
709.785	433.28
710.117	453.7
710.449	349.01
710.781	394.98
711.112	392.42
711.444	423.06
711.775	489.45
712.107	438.38
712.438	425.62
712.77	433.28
713.101	458.81
713.433	430.72
713.764	333.69
714.095	349.01
714.426	346.46
714.757	425.62
715.089	356.67
715.42	394.98
715.751	423.06
716.082	369.44
716.412	394.98
716.743	492
717.074	374.55
717.405	417.96
717.736	433.28
718.066	415.4
718.397	392.42
718.727	400.08
719.058	420.51
719.388	417.96
719.719	374.55
720.049	377.1
720.38	402.64
720.71	428.17
721.04	415.4
721.37	394.98
721.7	405.19
722.031	382.21
722.361	394.98
722.691	430.72
723.021	405.19
723.35	446.04
723.68	412.85
724.01	461.36
724.34	407.74
724.67	461.36
724.999	389.87
725.329	443.49
725.658	458.81
725.988	389.87
726.317	377.1
726.647	346.46
726.976	448.6
727.306	405.19
727.635	397.53
727.964	400.08
728.293	400.08
728.622	435.83
728.952	451.15
729.281	466.47
729.61	351.57
729.939	428.17
730.267	435.83
730.596	433.28
730.925	430.72
731.254	458.81
731.583	492
731.911	430.72
732.24	433.28
732.568	387.32
732.897	425.62
733.225	412.85
733.554	397.53
733.882	412.85
734.21	405.19
734.539	420.51
734.867	423.06
735.195	415.4
735.523	469.02
735.851	451.15
736.179	412.85
736.507	377.1
736.835	456.26
737.163	374.55
737.491	423.06
737.819	382.21
738.147	415.4
738.474	471.58
738.802	379.66
739.13	463.92
739.457	438.38
739.785	497.11
740.112	417.96
740.44	423.06
740.767	463.92
741.094	405.19
741.422	435.83
741.749	415.4
742.076	331.14
742.403	453.7
742.73	394.98
743.057	451.15
743.384	446.04
743.711	423.06
744.038	438.38
744.365	435.83
744.692	377.1
745.018	364.34
745.345	382.21
745.672	430.72
745.998	451.15
746.325	415.4
746.651	425.62
746.978	377.1
747.304	448.6
747.631	458.81
747.957	446.04
748.283	430.72
748.61	415.4
748.936	446.04
749.262	425.62
749.588	415.4
749.914	392.42
750.24	440.94
750.566	425.62
750.892	435.83
751.218	456.26
751.543	402.64
751.869	377.1
752.195	410.3
752.521	374.55
752.846	425.62
753.172	509.88
753.497	476.68
753.823	387.32
754.148	394.98
754.473	451.15
754.799	430.72
755.124	349.01
755.449	405.19
755.774	430.72
756.1	402.64
756.425	407.74
756.75	423.06
757.075	405.19
757.4	540.52
757.724	433.28
758.049	333.69
758.374	469.02
758.699	394.98
759.024	420.51
759.348	448.6
759.673	425.62
759.997	471.58
760.322	425.62
760.646	463.92
760.971	451.15
761.295	492
761.619	417.96
761.944	446.04
762.268	448.6
762.592	438.38
762.916	494.56
763.24	553.29
763.564	522.64
763.888	532.86
764.212	527.75
764.536	657.97
764.86	586.48
765.184	525.2
765.508	657.97
765.831	742.24
766.155	969.49
766.478	800.96
766.802	831.6
767.126	841.82
767.449	931.19
767.772	875.01
768.096	974.59
768.419	1040.98
768.742	1102.26
769.066	1010.34
769.389	1038.43
769.712	1301.42
770.035	1355.05
770.358	1344.83
770.681	1406.11
771.004	1574.64
771.327	1745.71
771.65	1615.49
771.972	1462.29
772.295	1498.03
772.618	1812.1
772.941	1845.29
773.263	1776.35
773.586	1740.61
773.908	1937.22
774.231	2001.05
774.553	1911.68
774.875	1743.16
775.198	2067.44
775.52	2233.41
775.842	2054.67
776.164	1817.21
776.487	1819.76
776.809	2021.48
777.131	2248.73
777.453	2149.15
777.775	2345.76
778.096	2797.7
778.418	2830.9
778.74	2675.14
779.062	2731.32
779.384	3362
779.705	3780.75
780.027	3369.66
780.348	2708.34
780.67	2996.87
780.991	3262.42
781.313	3139.86
781.634	3310.93
781.955	3905.87
782.277	4360.37
782.598	4053.97
782.919	3635.21
783.24	3461.58
783.561	4023.33
783.882	4500.81
784.203	4143.33
784.524	3525.42
784.845	3842.04
785.166	4316.96
785.487	3995.24
785.807	3637.77
786.128	3686.28
786.449	4579.96
786.769	4878.71
787.09	4258.24
787.41	3476.9
787.731	3790.97
788.051	4676.99
788.372	4587.62
788.692	3852.25
789.012	3783.31
789.332	4411.44
789.653	5144.26
789.973	4973.18
790.293	4641.24
790.613	5274.48
790.933	5700.9
791.253	5037.02
791.573	4153.55
791.893	4196.96
792.212	4641.24
792.532	5131.49
792.852	4212.28
793.171	3780.75
793.491	4873.6
793.811	5780.05
794.13	4896.58
794.45	3813.95
794.769	3819.06
795.088	4743.38
795.408	5067.66
795.727	4467.61
796.046	4176.53
796.365	5552.8
796.684	6290.73
797.004	5790.26
797.323	4544.21
797.642	4449.74
797.96	5317.89
798.279	5476.2
798.598	4173.98
798.917	3234.33
799.236	3474.35
799.554	4122.91
799.873	3921.19
800.192	3688.83
800.51	3249.65
800.829	3379.87
801.147	3974.81
801.466	4454.85
801.784	3865.02
802.102	3344.13
802.421	3566.27
802.739	4339.94
803.057	4248.02
803.375	3318.59
803.693	2961.12
804.011	3170.5
804.329	3208.8
804.647	2820.68
804.965	2432.57
805.283	2672.59
805.601	3487.12
805.918	3650.53
806.236	3119.43
806.554	2690.46
806.871	2677.7
807.189	3221.57
807.507	3665.85
807.824	3333.91
808.141	3109.22
808.459	3333.91
808.776	3482.01
809.093	2820.68
809.411	2404.48
809.728	2052.12
810.045	2266.6
810.362	2478.53
810.679	2230.85
810.996	2031.69
811.313	2080.21
811.63	2539.81
811.947	2892.18
812.264	2654.72
812.58	1962.75
812.897	1840.19
813.214	2233.41
813.53	2373.84
813.847	2248.73
814.163	1863.17
814.48	1837.63
814.796	2054.67
815.113	2118.51
815.429	1735.5
815.745	1561.87
816.061	1778.91
816.378	2128.72
816.694	1985.73
817.01	1661.45
817.326	1498.03
817.642	1459.73
817.958	1607.83
818.274	1607.83
818.59	1446.97
818.905	1222.27
819.221	1370.37
819.537	1715.07
819.852	1546.55
820.168	1227.38
820.484	1186.52
820.799	1270.78
821.115	1477.61
821.43	1449.52
821.745	1148.22
822.061	1035.87
822.376	1250.36
822.691	1426.54
823.006	1370.37
823.322	1316.75
823.637	1163.54
823.952	1061.41
824.267	1109.92
824.582	1418.88
824.897	1303.98
825.211	1028.21
825.526	1033.32
825.841	1007.79
826.156	1043.53
826.47	1023.11
826.785	803.52
827.1	800.96
827.414	854.58
827.729	964.38
828.043	867.35
828.357	711.59
828.672	729.47
828.986	864.8
829.3	826.5
829.614	742.24
829.929	675.85
830.243	642.65
830.557	808.62
830.871	762.66
831.185	737.13
831.499	657.97
831.812	614.57
832.126	657.97
832.44	772.88
832.754	831.6
833.067	734.57
833.381	647.76
833.695	566.05
834.008	726.91
834.322	826.5
834.635	680.95
834.948	642.65
835.262	566.05
835.575	617.12
835.888	594.14
836.201	634.99
836.515	578.82
836.828	591.59
837.141	606.91
837.454	571.16
837.767	571.16
838.08	486.9
838.392	461.36
838.705	571.16
839.018	532.86
839.331	537.96
839.643	471.58
839.956	489.45
840.269	507.32
840.581	504.77
840.894	446.04
841.206	509.88
841.519	476.68
841.831	476.68
842.143	509.88
842.455	507.32
842.768	476.68
843.08	461.36
843.392	384.76
843.704	435.83
844.016	512.43
844.328	522.64
844.64	494.56
844.952	517.54
845.263	507.32
845.575	412.85
845.887	499.66
846.199	499.66
846.51	456.26
846.822	466.47
847.133	423.06
847.445	430.72
847.756	471.58
848.068	430.72
848.379	435.83
848.69	443.49
849.002	484.34
849.313	433.28
849.624	494.56
849.935	415.4
850.246	392.42
850.557	392.42
850.868	382.21
851.179	356.67
851.49	364.34
851.801	346.46
852.112	458.81
852.422	484.34
852.733	430.72
853.044	379.66
853.354	405.19
853.665	400.08
853.975	428.17
854.286	387.32
854.596	387.32
854.906	481.79
855.217	438.38
855.527	461.36
855.837	451.15
856.147	548.18
856.458	402.64
856.768	435.83
857.078	402.64
857.388	443.49
857.698	374.55
858.007	448.6
858.317	486.9
858.627	448.6
858.937	433.28
859.246	394.98
859.556	374.55
859.866	354.12
860.175	384.76
860.485	463.92
860.794	384.76
861.104	389.87
861.413	415.4
861.722	435.83
862.032	423.06
862.341	415.4
862.65	443.49
862.959	379.66
863.268	461.36
863.577	469.02
863.886	456.26
864.195	361.78
864.504	402.64
864.813	550.73
865.122	425.62
865.43	369.44
865.739	458.81
866.048	463.92
866.356	430.72
866.665	415.4
866.973	402.64
867.282	435.83
867.59	423.06
867.899	407.74
868.207	456.26
868.515	423.06
868.823	389.87
869.132	484.34
869.44	405.19
869.748	440.94
870.056	428.17
870.364	417.96
870.672	407.74
870.98	400.08
871.288	448.6
871.595	440.94
871.903	394.98
872.211	471.58
872.518	463.92
872.826	476.68
873.134	412.85
873.441	440.94
873.749	402.64
874.056	458.81
874.363	394.98
874.671	438.38
874.978	412.85
875.285	423.06
875.592	415.4
875.9	394.98
876.207	415.4
876.514	423.06
876.821	438.38
877.128	471.58
877.435	446.04
877.741	486.9
878.048	412.85
878.355	384.76
878.662	417.96
878.968	425.62
879.275	420.51
879.582	443.49
879.888	349.01
880.195	379.66
880.501	374.55
880.807	428.17
881.114	346.46
881.42	346.46
881.726	397.53
882.032	374.55
882.339	430.72
882.645	394.98
882.951	415.4
883.257	435.83
883.563	359.23
883.869	397.53
884.174	415.4
884.48	389.87
884.786	400.08
885.092	443.49
885.397	379.66
885.703	456.26
886.009	428.17
886.314	397.53
886.62	397.53
886.925	423.06
887.231	354.12
887.536	476.68
887.841	425.62
888.146	420.51
888.452	402.64
888.757	400.08
889.062	446.04
889.367	461.36
889.672	412.85
889.977	428.17
890.282	356.67
890.587	359.23
890.892	382.21
891.196	423.06
891.501	446.04
891.806	446.04
892.11	392.42
892.415	417.96
892.72	387.32
893.024	456.26
893.328	379.66
893.633	428.17
893.937	430.72
894.242	338.8
894.546	415.4
894.85	377.1
895.154	364.34
895.458	407.74
895.762	448.6
896.066	400.08
896.37	430.72
896.674	440.94
896.978	405.19
897.282	430.72
897.586	387.32
897.89	407.74
898.193	377.1
898.497	446.04
898.801	412.85
899.104	379.66
899.408	430.72
899.711	466.47
900.014	435.83
900.318	474.13
900.621	479.24
900.924	484.34
901.228	461.36
901.531	415.4
901.834	448.6
902.137	379.66
902.44	402.64
902.743	407.74
903.046	435.83
903.349	415.4
903.652	438.38
903.955	402.64
904.257	466.47
904.56	471.58
904.863	405.19
905.165	400.08
905.468	428.17
905.77	476.68
906.073	387.32
906.375	466.47
906.678	397.53
906.98	430.72
907.282	359.23
907.584	425.62
907.887	338.8
908.189	379.66
908.491	458.81
908.793	433.28
909.095	415.4
909.397	382.21
909.699	407.74
910.001	384.76
910.302	402.64
910.604	415.4
910.906	402.64
911.208	313.27
911.509	415.4
911.811	448.6
912.112	394.98
912.414	382.21
912.715	425.62
913.017	430.72
913.318	440.94
913.619	476.68
913.92	428.17
914.222	369.44
914.523	412.85
914.824	423.06
915.125	389.87
915.426	400.08
915.727	387.32
916.028	397.53
916.329	356.67
916.63	382.21
916.93	484.34
917.231	481.79
917.532	323.48
917.832	364.34
918.133	423.06
918.434	438.38
918.734	423.06
919.034	364.34
919.335	369.44
919.635	407.74
919.935	410.3
920.236	382.21
920.536	364.34
920.836	402.64
921.136	435.83
921.436	520.09
921.736	453.7
922.036	430.72
922.336	407.74
922.636	425.62
922.936	415.4
923.236	417.96
923.535	428.17
923.835	374.55
924.135	435.83
924.434	405.19
924.734	389.87
925.033	410.3
925.333	415.4
925.632	415.4
925.932	435.83
926.231	438.38
926.53	346.46
926.83	389.87
927.129	369.44
927.428	471.58
927.727	446.04
928.026	369.44
928.325	433.28
928.624	438.38
928.923	392.42
929.222	374.55
929.52	356.67
929.819	351.57
930.118	359.23
930.417	351.57
930.715	379.66
931.014	410.3
931.312	509.88
931.611	366.89
931.909	372
932.207	407.74
932.506	356.67
932.804	379.66
933.102	400.08
933.401	356.67
933.699	456.26
933.997	435.83
934.295	387.32
934.593	443.49
934.891	440.94
935.189	389.87
935.487	410.3
935.784	405.19
936.082	382.21
936.38	474.13
936.677	407.74
936.975	377.1
937.273	389.87
937.57	392.42
937.868	377.1
938.165	394.98
938.463	451.15
938.76	351.57
939.057	433.28
939.354	471.58
939.652	456.26
939.949	412.85
940.246	397.53
940.543	417.96
940.84	423.06
941.137	415.4
941.434	448.6
941.731	446.04
942.028	379.66
942.324	397.53
942.621	379.66
942.918	430.72
943.214	410.3
943.511	377.1
943.807	369.44
944.104	377.1
944.4	361.78
944.697	458.81
944.993	359.23
945.29	417.96
945.586	394.98
945.882	412.85
946.178	384.76
946.474	351.57
946.77	425.62
947.066	359.23
947.362	423.06
947.658	430.72
947.954	392.42
948.25	415.4
948.546	387.32
948.842	443.49
949.137	417.96
949.433	463.92
949.729	476.68
950.024	446.04
950.32	382.21
950.615	394.98
950.91	417.96
951.206	384.76
951.501	354.12
951.796	458.81
952.092	451.15
952.387	389.87
952.682	389.87
952.977	343.91
953.272	364.34
953.567	417.96
953.862	474.13
954.157	387.32
954.452	440.94
954.747	446.04
955.041	415.4
955.336	433.28
955.631	400.08
955.925	417.96
956.22	415.4
956.514	440.94
956.809	392.42
957.103	433.28
957.398	400.08
957.692	394.98
957.986	361.78
958.281	402.64
958.575	417.96
958.869	377.1
959.163	425.62
959.457	377.1
959.751	417.96
960.045	364.34
960.339	354.12
960.633	389.87
960.927	415.4
961.221	466.47
961.514	400.08
961.808	359.23
962.102	397.53
962.395	328.59
962.689	466.47
962.982	443.49
963.276	438.38
963.569	405.19
963.862	372
964.156	364.34
964.449	412.85
964.742	400.08
965.035	461.36
965.328	387.32
965.622	435.83
965.915	443.49
966.208	423.06
966.5	402.64
966.793	400.08
967.086	415.4
967.379	341.35
967.672	372
967.964	453.7
968.257	428.17
968.55	389.87
968.842	382.21
969.135	438.38
969.427	407.74
969.72	384.76
970.012	463.92
970.304	433.28
970.597	369.44
970.889	425.62
971.181	400.08
971.473	387.32
971.765	377.1
972.057	417.96
972.349	359.23
972.641	438.38
972.933	364.34
973.225	297.95
973.517	323.48
973.809	412.85
974.1	410.3
974.392	384.76
974.684	438.38
974.975	420.51
975.267	453.7
975.558	361.78
975.85	405.19
976.141	364.34
976.432	458.81
976.724	417.96
977.015	458.81
977.306	435.83
977.597	359.23
977.888	435.83
978.179	359.23
978.47	374.55
978.761	415.4
979.052	474.13
979.343	389.87
979.634	423.06
979.925	400.08
980.215	415.4
980.506	463.92
980.797	392.42
981.087	387.32
981.378	392.42
981.668	497.11
981.959	448.6
982.249	397.53
982.54	405.19
982.83	387.32
983.12	461.36
983.41	502.22
983.701	420.51
983.991	384.76
984.281	471.58
984.571	346.46
984.861	397.53
985.151	412.85
985.441	471.58
985.73	397.53
986.02	394.98
986.31	389.87
986.6	407.74
986.889	402.64
987.179	359.23
987.469	389.87
987.758	443.49
988.048	466.47
988.337	372
988.626	397.53
988.916	412.85
989.205	392.42
989.494	425.62
989.783	387.32
990.073	343.91
990.362	407.74
990.651	331.14
990.94	415.4
991.229	400.08
991.518	461.36
991.806	343.91
992.095	423.06
992.384	394.98
992.673	453.7
992.961	382.21
993.25	405.19
993.539	372
993.827	333.69
994.116	392.42
994.404	417.96
994.692	369.44
994.981	377.1
995.269	486.9
995.557	433.28
995.846	369.44
996.134	397.53
996.422	394.98
996.71	359.23
996.998	428.17
997.286	423.06
997.574	476.68
997.862	471.58
998.15	423.06
998.437	410.3
998.725	397.53
999.013	354.12
999.3	433.28
999.588	474.13
999.876	423.06
1000.163	425.62
1000.45	394.98
1000.738	509.88
1001.025	438.38
1001.313	520.09
1001.6	461.36
1001.887	400.08
1002.174	435.83
1002.461	430.72
1002.748	384.76
1003.036	453.7
1003.322	392.42
1003.609	405.19
1003.896	397.53
1004.183	456.26
1004.47	372
1004.757	356.67
1005.043	446.04
1005.33	466.47
1005.617	471.58
1005.903	407.74
1006.19	364.34
1006.476	323.48
1006.763	405.19
1007.049	356.67
1007.335	400.08
1007.622	410.3
1007.908	415.4
1008.194	425.62
1008.48	379.66
1008.766	443.49
1009.053	428.17
1009.339	435.83
1009.625	420.51
1009.91	433.28
1010.196	397.53
1010.482	384.76
1010.768	364.34
1011.054	412.85
1011.339	484.34
1011.625	425.62
1011.911	374.55
1012.196	410.3
1012.482	351.57
1012.767	438.38
1013.052	461.36
1013.338	481.79
1013.623	417.96
1013.908	469.02
1014.194	471.58
1014.479	469.02
1014.764	402.64
1015.049	405.19
1015.334	430.72
1015.619	417.96
1015.904	430.72
1016.189	397.53
1016.474	481.79
1016.758	407.74
1017.043	405.19
1017.328	387.32
1017.613	446.04
1017.897	402.64
1018.182	466.47
1018.466	430.72
1018.751	446.04
1019.035	389.87
1019.32	453.7
1019.604	471.58
1019.888	372
1020.172	372
1020.457	372
