Data from 2025-12-03_xpw_interference_micrometer_641_FLMS141361__0__12.txt Node

Date: Wed Dec 03 15:11:39 MST 2025
User: james
Spectrometer: FLMS14136
Trigger mode: 0
Integration Time (sec): 1.000000E-1
Scans to average: 1
Electric dark correction enabled: true
Nonlinearity correction enabled: false
Boxcar width: 0
XAxis mode: Wavelengths
Number of Pixels in Spectrum: 2048
>>>>>Begin Spectral Data<<<<<
339.315	-103.89
339.697	-103.89
340.079	-103.89
340.461	-116.66
340.843	-101.34
341.225	-106.44
341.607	-109
341.989	-116.66
342.371	-60.48
342.752	-109
343.134	-45.16
343.516	-42.61
343.897	-40.06
344.279	18.67
344.661	33.99
345.042	56.97
345.423	159.11
345.805	44.21
346.186	82.51
346.567	156.55
346.949	77.4
347.33	138.68
347.711	228.05
348.092	202.51
348.473	238.26
348.854	245.92
349.235	276.56
349.616	309.76
349.997	261.24
350.378	274.01
350.758	263.8
351.139	299.54
351.52	330.18
351.9	322.52
352.281	286.78
352.661	307.2
353.042	335.29
353.422	355.72
353.803	388.91
354.183	371.04
354.563	365.93
354.943	353.16
355.324	342.95
355.704	427.21
356.084	391.46
356.464	348.06
356.844	424.66
357.224	450.19
357.603	394.02
357.983	442.53
358.363	355.72
358.743	414.45
359.122	386.36
359.502	414.45
359.882	304.65
360.261	388.91
360.641	388.91
361.02	439.98
361.399	399.12
361.779	383.8
362.158	319.97
362.537	355.72
362.916	340.4
363.296	345.5
363.675	322.52
364.054	371.04
364.433	353.16
364.812	376.14
365.19	368.48
365.569	337.84
365.948	345.5
366.327	332.74
366.705	434.87
367.084	360.82
367.463	304.65
367.841	358.27
368.22	358.27
368.598	332.74
368.977	284.22
369.355	302.1
369.733	268.9
370.111	304.65
370.49	409.34
370.868	332.74
371.246	342.95
371.624	294.44
372.002	317.42
372.38	360.82
372.758	307.2
373.136	286.78
373.513	296.99
373.891	386.36
374.269	350.61
374.646	365.93
375.024	376.14
375.402	406.79
375.779	378.7
376.157	376.14
376.534	286.78
376.911	307.2
377.289	342.95
377.666	386.36
378.043	332.74
378.42	391.46
378.797	314.86
379.175	322.52
379.552	337.84
379.929	394.02
380.305	365.93
380.682	322.52
381.059	394.02
381.436	432.32
381.813	327.63
382.189	353.16
382.566	337.84
382.943	332.74
383.319	319.97
383.696	376.14
384.072	322.52
384.448	401.68
384.825	353.16
385.201	299.54
385.577	337.84
385.953	322.52
386.329	335.29
386.706	322.52
387.082	360.82
387.458	319.97
387.834	327.63
388.209	409.34
388.585	337.84
388.961	376.14
389.337	381.25
389.713	325.08
390.088	365.93
390.464	371.04
390.839	348.06
391.215	345.5
391.59	363.38
391.966	383.8
392.341	391.46
392.716	350.61
393.092	388.91
393.467	353.16
393.842	307.2
394.217	340.4
394.592	376.14
394.967	406.79
395.342	342.95
395.717	335.29
396.092	396.57
396.467	368.48
396.841	368.48
397.216	332.74
397.591	358.27
397.965	404.23
398.34	483.39
398.714	411.89
399.089	485.94
399.463	381.25
399.838	332.74
400.212	376.14
400.586	396.57
400.961	383.8
401.335	376.14
401.709	373.59
402.083	348.06
402.457	358.27
402.831	358.27
403.205	373.59
403.579	373.59
403.953	350.61
404.326	381.25
404.7	457.85
405.074	312.31
405.447	388.91
405.821	371.04
406.195	355.72
406.568	383.8
406.942	439.98
407.315	371.04
407.688	401.68
408.062	353.16
408.435	327.63
408.808	345.5
409.181	391.46
409.554	309.76
409.927	358.27
410.3	365.93
410.673	342.95
411.046	386.36
411.419	437.43
411.792	376.14
412.165	317.42
412.537	373.59
412.91	409.34
413.283	394.02
413.655	419.55
414.028	335.29
414.4	429.77
414.773	376.14
415.145	358.27
415.517	406.79
415.889	424.66
416.262	396.57
416.634	276.56
417.006	355.72
417.378	404.23
417.75	399.12
418.122	394.02
418.494	365.93
418.866	363.38
419.238	383.8
419.609	391.46
419.981	388.91
420.353	394.02
420.725	409.34
421.096	404.23
421.468	417
421.839	437.43
422.211	383.8
422.582	365.93
422.953	332.74
423.325	434.87
423.696	332.74
424.067	388.91
424.438	363.38
424.809	475.73
425.18	388.91
425.551	419.55
425.922	371.04
426.293	368.48
426.664	399.12
427.035	447.64
427.406	381.25
427.776	386.36
428.147	396.57
428.518	391.46
428.888	399.12
429.259	386.36
429.629	419.55
429.999	414.45
430.37	350.61
430.74	371.04
431.11	378.7
431.481	411.89
431.851	399.12
432.221	365.93
432.591	371.04
432.961	360.82
433.331	401.68
433.701	396.57
434.071	363.38
434.441	401.68
434.81	411.89
435.18	457.85
435.55	399.12
435.919	332.74
436.289	411.89
436.658	411.89
437.028	414.45
437.397	442.53
437.767	348.06
438.136	427.21
438.505	396.57
438.875	409.34
439.244	437.43
439.613	391.46
439.982	378.7
440.351	404.23
440.72	422.11
441.089	399.12
441.458	447.64
441.827	376.14
442.196	363.38
442.564	442.53
442.933	457.85
443.302	460.41
443.67	358.27
444.039	434.87
444.407	406.79
444.776	327.63
445.144	319.97
445.513	411.89
445.881	399.12
446.249	399.12
446.617	447.64
446.986	422.11
447.354	391.46
447.722	355.72
448.09	411.89
448.458	368.48
448.826	422.11
449.194	391.46
449.561	429.77
449.929	355.72
450.297	386.36
450.665	355.72
451.032	391.46
451.4	365.93
451.767	439.98
452.135	388.91
452.502	414.45
452.87	401.68
453.237	414.45
453.604	386.36
453.971	432.32
454.339	439.98
454.706	376.14
455.073	409.34
455.44	348.06
455.807	401.68
456.174	330.18
456.541	368.48
456.908	365.93
457.274	432.32
457.641	381.25
458.008	427.21
458.374	417
458.741	434.87
459.108	365.93
459.474	371.04
459.841	373.59
460.207	388.91
460.573	348.06
460.94	429.77
461.306	417
461.672	388.91
462.038	422.11
462.404	427.21
462.771	411.89
463.137	419.55
463.503	360.82
463.868	427.21
464.234	399.12
464.6	391.46
464.966	447.64
465.332	360.82
465.697	378.7
466.063	442.53
466.429	406.79
466.794	404.23
467.16	462.96
467.525	386.36
467.89	340.4
468.256	414.45
468.621	409.34
468.986	406.79
469.351	424.66
469.717	371.04
470.082	358.27
470.447	432.32
470.812	419.55
471.177	470.62
471.542	376.14
471.906	396.57
472.271	473.17
472.636	391.46
473.001	401.68
473.365	419.55
473.73	388.91
474.094	355.72
474.459	396.57
474.823	365.93
475.188	371.04
475.552	371.04
475.917	434.87
476.281	363.38
476.645	455.3
477.009	457.85
477.373	432.32
477.737	419.55
478.101	404.23
478.465	445.09
478.829	439.98
479.193	503.81
479.557	386.36
479.921	434.87
480.284	378.7
480.648	376.14
481.012	417
481.375	388.91
481.739	388.91
482.102	437.43
482.466	424.66
482.829	445.09
483.193	417
483.556	386.36
483.919	429.77
484.282	373.59
484.645	383.8
485.009	348.06
485.372	383.8
485.735	406.79
486.098	419.55
486.46	373.59
486.823	411.89
487.186	424.66
487.549	368.48
487.912	386.36
488.274	368.48
488.637	422.11
488.999	409.34
489.362	371.04
489.724	445.09
490.087	401.68
490.449	345.5
490.811	406.79
491.174	391.46
491.536	409.34
491.898	417
492.26	450.19
492.622	368.48
492.984	391.46
493.346	391.46
493.708	450.19
494.07	360.82
494.432	391.46
494.794	376.14
495.155	376.14
495.517	519.13
495.879	457.85
496.24	396.57
496.602	388.91
496.963	394.02
497.325	439.98
497.686	383.8
498.048	419.55
498.409	386.36
498.77	409.34
499.131	401.68
499.492	394.02
499.854	360.82
500.215	409.34
500.576	401.68
500.937	427.21
501.298	399.12
501.658	350.61
502.019	360.82
502.38	350.61
502.741	414.45
503.101	376.14
503.462	457.85
503.823	452.75
504.183	350.61
504.543	445.09
504.904	368.48
505.264	353.16
505.625	417
505.985	427.21
506.345	404.23
506.705	447.64
507.065	399.12
507.426	409.34
507.786	368.48
508.146	409.34
508.505	424.66
508.865	406.79
509.225	371.04
509.585	432.32
509.945	478.28
510.304	460.41
510.664	414.45
511.024	447.64
511.383	386.36
511.743	414.45
512.102	437.43
512.462	378.7
512.821	368.48
513.18	342.95
513.539	460.41
513.899	414.45
514.258	401.68
514.617	432.32
514.976	383.8
515.335	365.93
515.694	414.45
516.053	340.4
516.412	457.85
516.771	404.23
517.129	450.19
517.488	363.38
517.847	381.25
518.205	399.12
518.564	394.02
518.922	442.53
519.281	434.87
519.639	411.89
519.998	411.89
520.356	404.23
520.714	437.43
521.073	429.77
521.431	381.25
521.789	406.79
522.147	455.3
522.505	439.98
522.863	381.25
523.221	386.36
523.579	434.87
523.937	332.74
524.295	391.46
524.652	411.89
525.01	399.12
525.368	388.91
525.725	455.3
526.083	442.53
526.44	350.61
526.798	381.25
527.155	335.29
527.513	353.16
527.87	350.61
528.227	391.46
528.584	386.36
528.942	388.91
529.299	383.8
529.656	411.89
530.013	396.57
530.37	439.98
530.727	406.79
531.083	419.55
531.44	437.43
531.797	394.02
532.154	406.79
532.511	424.66
532.867	376.14
533.224	399.12
533.58	383.8
533.937	429.77
534.293	419.55
534.65	414.45
535.006	437.43
535.362	434.87
535.718	391.46
536.075	437.43
536.431	388.91
536.787	348.06
537.143	404.23
537.499	468.07
537.855	445.09
538.211	406.79
538.567	406.79
538.923	496.15
539.278	445.09
539.634	399.12
539.99	434.87
540.345	470.62
540.701	409.34
541.056	434.87
541.412	391.46
541.767	383.8
542.123	422.11
542.478	432.32
542.833	373.59
543.188	335.29
543.544	394.02
543.899	462.96
544.254	427.21
544.609	378.7
544.964	399.12
545.319	353.16
545.674	386.36
546.029	388.91
546.383	442.53
546.738	411.89
547.093	429.77
547.447	455.3
547.802	401.68
548.157	406.79
548.511	350.61
548.866	473.17
549.22	378.7
549.574	335.29
549.929	373.59
550.283	442.53
550.637	411.89
550.991	427.21
551.345	424.66
551.699	485.94
552.053	452.75
552.407	427.21
552.761	409.34
553.115	378.7
553.469	475.73
553.823	371.04
554.176	383.8
554.53	478.28
554.884	452.75
555.237	680
555.591	462.96
555.944	424.66
556.298	434.87
556.651	422.11
557.005	475.73
557.358	406.79
557.711	373.59
558.064	399.12
558.417	396.57
558.771	542.11
559.124	455.3
559.477	394.02
559.83	478.28
560.182	337.84
560.535	519.13
560.888	409.34
561.241	439.98
561.594	429.77
561.946	406.79
562.299	450.19
562.651	483.39
563.004	391.46
563.356	478.28
563.709	424.66
564.061	360.82
564.413	422.11
564.766	432.32
565.118	399.12
565.47	445.09
565.822	376.14
566.174	381.25
566.526	335.29
566.878	427.21
567.23	388.91
567.582	414.45
567.934	365.93
568.286	409.34
568.638	394.02
568.989	340.4
569.341	394.02
569.693	383.8
570.044	371.04
570.396	327.63
570.747	386.36
571.098	383.8
571.45	434.87
571.801	452.75
572.152	417
572.504	394.02
572.855	439.98
573.206	394.02
573.557	447.64
573.908	378.7
574.259	358.27
574.61	422.11
574.961	399.12
575.311	419.55
575.662	401.68
576.013	401.68
576.364	462.96
576.714	417
577.065	396.57
577.415	401.68
577.766	371.04
578.116	355.72
578.467	388.91
578.817	424.66
579.167	417
579.518	365.93
579.868	388.91
580.218	422.11
580.568	388.91
580.918	368.48
581.268	378.7
581.618	452.75
581.968	417
582.318	355.72
582.668	360.82
583.017	360.82
583.367	411.89
583.717	439.98
584.066	368.48
584.416	355.72
584.765	376.14
585.115	340.4
585.464	386.36
585.814	391.46
586.163	491.05
586.512	373.59
586.862	432.32
587.211	404.23
587.56	396.57
587.909	355.72
588.258	414.45
588.607	381.25
588.956	450.19
589.305	419.55
589.654	342.95
590.002	434.87
590.351	411.89
590.7	417
591.048	376.14
591.397	378.7
591.746	399.12
592.094	386.36
592.443	404.23
592.791	368.48
593.139	462.96
593.488	457.85
593.836	429.77
594.184	429.77
594.532	462.96
594.88	437.43
595.228	419.55
595.576	396.57
595.924	371.04
596.272	376.14
596.62	434.87
596.968	376.14
597.316	363.38
597.664	355.72
598.011	348.06
598.359	358.27
598.706	388.91
599.054	368.48
599.402	383.8
599.749	350.61
600.096	447.64
600.444	411.89
600.791	427.21
601.138	368.48
601.485	350.61
601.833	368.48
602.18	417
602.527	424.66
602.874	391.46
603.221	386.36
603.568	386.36
603.914	394.02
604.261	388.91
604.608	417
604.955	368.48
605.301	327.63
605.648	383.8
605.995	386.36
606.341	414.45
606.688	371.04
607.034	396.57
607.38	450.19
607.727	404.23
608.073	383.8
608.419	365.93
608.765	404.23
609.112	432.32
609.458	363.38
609.804	332.74
610.15	373.59
610.496	378.7
610.842	340.4
611.187	388.91
611.533	445.09
611.879	414.45
612.225	401.68
612.57	437.43
612.916	391.46
613.261	399.12
613.607	414.45
613.952	427.21
614.298	424.66
614.643	371.04
614.989	417
615.334	414.45
615.679	399.12
616.024	383.8
616.369	432.32
616.714	465.51
617.059	388.91
617.404	442.53
617.749	414.45
618.094	345.5
618.439	404.23
618.784	406.79
619.129	427.21
619.473	373.59
619.818	388.91
620.163	439.98
620.507	353.16
620.852	388.91
621.196	429.77
621.54	406.79
621.885	396.57
622.229	394.02
622.573	309.76
622.918	360.82
623.262	388.91
623.606	429.77
623.95	394.02
624.294	365.93
624.638	355.72
624.982	401.68
625.326	422.11
625.67	434.87
626.013	424.66
626.357	358.27
626.701	422.11
627.044	401.68
627.388	475.73
627.731	383.8
628.075	452.75
628.418	391.46
628.762	391.46
629.105	388.91
629.448	394.02
629.792	406.79
630.135	376.14
630.478	417
630.821	345.5
631.164	399.12
631.507	414.45
631.85	475.73
632.193	404.23
632.536	414.45
632.879	437.43
633.221	399.12
633.564	434.87
633.907	368.48
634.249	394.02
634.592	373.59
634.935	365.93
635.277	363.38
635.619	432.32
635.962	424.66
636.304	332.74
636.646	358.27
636.989	353.16
637.331	396.57
637.673	383.8
638.015	358.27
638.357	371.04
638.699	342.95
639.041	337.84
639.383	378.7
639.725	427.21
640.067	432.32
640.408	399.12
640.75	304.65
641.092	452.75
641.433	455.3
641.775	386.36
642.116	401.68
642.458	404.23
642.799	360.82
643.141	414.45
643.482	388.91
643.823	422.11
644.164	409.34
644.506	493.6
644.847	470.62
645.188	376.14
645.529	386.36
645.87	376.14
646.211	381.25
646.552	360.82
646.893	399.12
647.233	399.12
647.574	358.27
647.915	411.89
648.255	381.25
648.596	391.46
648.937	427.21
649.277	381.25
649.618	381.25
649.958	371.04
650.298	365.93
650.639	353.16
650.979	427.21
651.319	401.68
651.659	427.21
651.999	399.12
652.339	399.12
652.679	353.16
653.019	345.5
653.359	353.16
653.699	365.93
654.039	406.79
654.379	342.95
654.719	358.27
655.058	348.06
655.398	368.48
655.737	480.83
656.077	388.91
656.416	376.14
656.756	432.32
657.095	391.46
657.435	345.5
657.774	386.36
658.113	455.3
658.452	468.07
658.792	386.36
659.131	419.55
659.47	414.45
659.809	399.12
660.148	317.42
660.487	394.02
660.826	406.79
661.164	368.48
661.503	371.04
661.842	401.68
662.181	404.23
662.519	424.66
662.858	457.85
663.196	442.53
663.535	422.11
663.873	475.73
664.212	399.12
664.55	460.41
664.888	432.32
665.226	396.57
665.565	353.16
665.903	565.09
666.241	422.11
666.579	365.93
666.917	388.91
667.255	363.38
667.593	371.04
667.931	432.32
668.268	383.8
668.606	381.25
668.944	394.02
669.282	355.72
669.619	335.29
669.957	445.09
670.294	396.57
670.632	302.1
670.969	322.52
671.307	419.55
671.644	317.42
671.981	327.63
672.318	312.31
672.656	414.45
672.993	376.14
673.33	422.11
673.667	325.08
674.004	378.7
674.341	378.7
674.678	404.23
675.015	417
675.351	409.34
675.688	432.32
676.025	452.75
676.362	383.8
676.698	429.77
677.035	406.79
677.371	350.61
677.708	360.82
678.044	388.91
678.38	473.17
678.717	465.51
679.053	406.79
679.389	386.36
679.725	376.14
680.062	406.79
680.398	383.8
680.734	434.87
681.07	399.12
681.406	424.66
681.742	450.19
682.077	409.34
682.413	455.3
682.749	381.25
683.085	434.87
683.42	386.36
683.756	355.72
684.091	348.06
684.427	396.57
684.762	414.45
685.098	388.91
685.433	455.3
685.768	360.82
686.104	363.38
686.439	353.16
686.774	417
687.109	388.91
687.444	391.46
687.779	348.06
688.114	419.55
688.449	353.16
688.784	401.68
689.119	478.28
689.454	432.32
689.789	401.68
690.123	368.48
690.458	386.36
690.792	368.48
691.127	427.21
691.461	386.36
691.796	350.61
692.13	348.06
692.465	411.89
692.799	409.34
693.133	394.02
693.467	396.57
693.802	462.96
694.136	406.79
694.47	417
694.804	414.45
695.138	414.45
695.472	371.04
695.806	373.59
696.139	399.12
696.473	414.45
696.807	404.23
697.141	391.46
697.474	383.8
697.808	468.07
698.141	429.77
698.475	404.23
698.808	371.04
699.142	348.06
699.475	394.02
699.808	396.57
700.142	358.27
700.475	376.14
700.808	325.08
701.141	368.48
701.474	327.63
701.807	360.82
702.14	383.8
702.473	419.55
702.806	386.36
703.139	411.89
703.472	396.57
703.804	342.95
704.137	330.18
704.47	348.06
704.802	360.82
705.135	296.99
705.467	409.34
705.8	391.46
706.132	376.14
706.464	340.4
706.797	360.82
707.129	365.93
707.461	442.53
707.793	368.48
708.125	371.04
708.457	411.89
708.789	373.59
709.121	355.72
709.453	355.72
709.785	340.4
710.117	335.29
710.449	332.74
710.781	332.74
711.112	409.34
711.444	371.04
711.775	394.02
712.107	363.38
712.438	378.7
712.77	411.89
713.101	391.46
713.433	414.45
713.764	399.12
714.095	330.18
714.426	340.4
714.757	391.46
715.089	378.7
715.42	376.14
715.751	422.11
716.082	345.5
716.412	314.86
716.743	335.29
717.074	373.59
717.405	391.46
717.736	368.48
718.066	404.23
718.397	322.52
718.727	414.45
719.058	391.46
719.388	355.72
719.719	399.12
720.049	424.66
720.38	383.8
720.71	498.71
721.04	358.27
721.37	371.04
721.7	394.02
722.031	317.42
722.361	368.48
722.691	437.43
723.021	462.96
723.35	455.3
723.68	391.46
724.01	355.72
724.34	399.12
724.67	447.64
724.999	455.3
725.329	422.11
725.658	414.45
725.988	325.08
726.317	394.02
726.647	358.27
726.976	345.5
727.306	312.31
727.635	337.84
727.964	322.52
728.293	406.79
728.622	404.23
728.952	460.41
729.281	442.53
729.61	399.12
729.939	429.77
730.267	409.34
730.596	396.57
730.925	396.57
731.254	386.36
731.583	355.72
731.911	314.86
732.24	399.12
732.568	399.12
732.897	368.48
733.225	388.91
733.554	404.23
733.882	355.72
734.21	340.4
734.539	411.89
734.867	411.89
735.195	409.34
735.523	409.34
735.851	355.72
736.179	396.57
736.507	386.36
736.835	386.36
737.163	381.25
737.491	419.55
737.819	373.59
738.147	383.8
738.474	373.59
738.802	411.89
739.13	381.25
739.457	363.38
739.785	383.8
740.112	363.38
740.44	330.18
740.767	427.21
741.094	383.8
741.422	460.41
741.749	394.02
742.076	427.21
742.403	419.55
742.73	368.48
743.057	376.14
743.384	342.95
743.711	353.16
744.038	432.32
744.365	447.64
744.692	363.38
745.018	409.34
745.345	485.94
745.672	417
745.998	312.31
746.325	383.8
746.651	452.75
746.978	414.45
747.304	363.38
747.631	394.02
747.957	358.27
748.283	411.89
748.61	409.34
748.936	368.48
749.262	409.34
749.588	422.11
749.914	437.43
750.24	340.4
750.566	396.57
750.892	376.14
751.218	345.5
751.543	358.27
751.869	452.75
752.195	348.06
752.521	327.63
752.846	439.98
753.172	437.43
753.497	381.25
753.823	355.72
754.148	360.82
754.473	401.68
754.799	434.87
755.124	417
755.449	302.1
755.774	396.57
756.1	411.89
756.425	337.84
756.75	388.91
757.075	373.59
757.4	450.19
757.724	478.28
758.049	442.53
758.374	417
758.699	394.02
759.024	386.36
759.348	373.59
759.673	432.32
759.997	429.77
760.322	424.66
760.646	429.77
760.971	434.87
761.295	386.36
761.619	432.32
761.944	450.19
762.268	478.28
762.592	465.51
762.916	470.62
763.24	478.28
763.564	549.77
763.888	516.58
764.212	598.29
764.536	565.09
764.86	618.72
765.184	710.64
765.508	669.78
765.831	634.04
766.155	1009.38
766.478	940.44
766.802	914.91
767.126	904.69
767.449	820.43
767.772	817.88
768.096	897.03
768.419	1185.57
768.742	1420.48
769.066	1366.86
769.389	1392.39
769.712	1292.81
770.035	1177.91
770.358	1494.52
770.681	1931.15
771.004	2173.72
771.327	2063.93
771.65	1816.25
771.972	1566.02
772.295	1586.45
772.618	1956.69
772.941	2674.18
773.263	3136.35
773.586	3031.66
773.908	2623.12
774.231	2053.71
774.553	1716.67
774.875	1969.45
775.198	2503.11
775.52	3146.56
775.842	3067.4
776.164	2761
776.487	2196.7
776.809	1989.88
777.131	2081.8
777.453	2944.84
777.775	3409.56
778.096	3307.42
778.418	3105.71
778.74	2589.92
779.062	2520.98
779.384	3013.78
779.705	3943.21
780.027	4737.31
780.348	5117.77
780.67	4760.29
780.991	3986.62
781.313	3506.59
781.634	3366.15
781.955	4313.45
782.277	5549.29
782.598	6376.58
782.919	5840.37
783.24	4566.24
783.561	3271.68
783.882	3011.23
784.203	3603.61
784.524	4515.17
784.845	5018.19
785.166	5048.83
785.487	4351.75
785.807	3667.45
786.128	3057.19
786.449	3220.61
786.769	4461.55
787.09	5957.83
787.41	7050.67
787.731	6825.98
788.051	5268.42
788.372	3790.01
788.692	3644.47
789.012	4721.99
789.332	5998.68
789.653	7594.54
789.973	7454.11
790.293	6935.77
790.613	5283.74
790.933	3812.99
791.253	3897.25
791.573	5046.27
791.893	6156.99
792.212	7004.71
792.532	7152.81
792.852	5230.12
793.171	3741.5
793.491	3340.62
793.811	4397.71
794.13	6356.16
794.45	8358
794.769	8649.09
795.088	8209.91
795.408	5791.86
795.727	3940.66
796.046	3399.34
796.365	3973.85
796.684	5648.87
797.004	7719.66
797.323	8202.25
797.642	6419.99
797.96	4114.29
798.279	2898.88
798.598	2697.17
798.917	3511.69
799.236	4382.39
799.554	5516.09
799.873	6001.24
800.192	5268.42
800.51	3841.08
800.829	2766.11
801.147	2515.88
801.466	2993.36
801.784	3851.29
802.102	5217.35
802.421	6241.25
802.739	5324.59
803.057	3976.41
803.375	2628.22
803.693	2406.08
804.011	2863.13
804.329	4211.32
804.647	5564.61
804.965	5804.63
805.283	5092.23
805.601	3920.23
805.918	2730.36
806.236	2171.17
806.554	2648.65
806.871	3483.61
807.189	4581.56
807.507	5242.88
807.824	5148.41
808.141	4236.85
808.459	2832.49
808.776	2140.53
809.093	2214.58
809.411	2924.42
809.728	3595.95
810.045	3603.61
810.362	3340.62
810.679	3090.39
810.996	2505.66
811.313	1943.92
811.63	2043.5
811.947	2689.5
812.264	3304.87
812.58	3445.3
812.897	3281.89
813.214	2566.94
813.53	1765.18
813.847	1236.63
814.163	1361.75
814.48	1739.65
814.796	2536.3
815.113	3115.92
815.429	2914.2
815.745	2459.7
816.061	1903.06
816.378	1443.46
816.694	1183.01
817.01	1218.76
817.326	1655.39
817.642	2040.95
817.958	2357.57
818.274	2217.13
818.59	1867.32
818.905	1433.24
819.221	1139.6
819.537	1083.43
819.852	1228.97
820.168	1466.44
820.484	1887.74
820.799	1900.51
821.115	1770.29
821.43	1417.92
821.745	1073.22
822.061	879.16
822.376	932.78
822.691	1172.8
823.006	1440.9
823.322	1433.24
823.637	1392.39
823.952	1290.25
824.267	981.3
824.582	748.94
824.897	733.62
825.211	779.58
825.526	891.93
825.841	1070.66
826.156	1203.44
826.47	1119.18
826.785	963.42
827.1	769.36
827.414	690.21
827.729	644.25
828.043	741.28
828.357	800.01
828.672	912.35
828.986	981.3
829.3	794.9
829.614	710.64
829.929	565.09
830.243	595.74
830.557	570.2
830.871	593.18
831.185	746.38
831.499	902.14
831.812	917.46
832.126	889.37
832.44	769.36
832.754	554.88
833.067	457.85
833.381	567.65
833.695	549.77
834.008	580.41
834.322	667.23
834.635	725.96
834.948	761.7
835.262	680
835.575	552.33
835.888	488.49
836.201	457.85
836.515	526.79
836.828	572.75
837.141	549.77
837.454	634.04
837.767	572.75
838.08	531.9
838.392	478.28
838.705	475.73
839.018	401.68
839.331	432.32
839.643	488.49
839.956	516.58
840.269	465.51
840.581	478.28
840.894	411.89
841.206	506.37
841.519	608.5
841.831	409.34
842.143	506.37
842.455	483.39
842.768	409.34
843.08	542.11
843.392	519.13
843.704	465.51
844.016	452.75
844.328	427.21
844.64	391.46
844.952	496.15
845.263	414.45
845.575	447.64
845.887	409.34
846.199	386.36
846.51	470.62
846.822	424.66
847.133	424.66
847.445	360.82
847.756	342.95
848.068	452.75
848.379	439.98
848.69	429.77
849.002	442.53
849.313	455.3
849.624	360.82
849.935	427.21
850.246	396.57
850.557	437.43
850.868	399.12
851.179	381.25
851.49	404.23
851.801	424.66
852.112	409.34
852.422	396.57
852.733	376.14
853.044	409.34
853.354	383.8
853.665	386.36
853.975	399.12
854.286	419.55
854.596	422.11
854.906	455.3
855.217	419.55
855.527	376.14
855.837	330.18
856.147	396.57
856.458	409.34
856.768	386.36
857.078	307.2
857.388	406.79
857.698	394.02
858.007	417
858.317	409.34
858.627	376.14
858.937	419.55
859.246	388.91
859.556	368.48
859.866	422.11
860.175	348.06
860.485	350.61
860.794	360.82
861.104	406.79
861.413	406.79
861.722	427.21
862.032	330.18
862.341	386.36
862.65	353.16
862.959	353.16
863.268	342.95
863.577	365.93
863.886	383.8
864.195	373.59
864.504	399.12
864.813	363.38
865.122	312.31
865.43	388.91
865.739	394.02
866.048	391.46
866.356	383.8
866.665	378.7
866.973	401.68
867.282	337.84
867.59	381.25
867.899	414.45
868.207	355.72
868.515	406.79
868.823	386.36
869.132	381.25
869.44	327.63
869.748	302.1
870.056	358.27
870.364	286.78
870.672	422.11
870.98	371.04
871.288	373.59
871.595	391.46
871.903	422.11
872.211	442.53
872.518	391.46
872.826	465.51
873.134	345.5
873.441	345.5
873.749	391.46
874.056	396.57
874.363	378.7
874.671	353.16
874.978	373.59
875.285	325.08
875.592	399.12
875.9	376.14
876.207	363.38
876.514	409.34
876.821	378.7
877.128	401.68
877.435	424.66
877.741	378.7
878.048	457.85
878.355	340.4
878.662	401.68
878.968	332.74
879.275	381.25
879.582	394.02
879.888	437.43
880.195	376.14
880.501	394.02
880.807	381.25
881.114	342.95
881.42	373.59
881.726	470.62
882.032	445.09
882.339	406.79
882.645	399.12
882.951	348.06
883.257	371.04
883.563	363.38
883.869	414.45
884.174	427.21
884.48	319.97
884.786	376.14
885.092	485.94
885.397	409.34
885.703	378.7
886.009	422.11
886.314	424.66
886.62	460.41
886.925	427.21
887.231	422.11
887.536	437.43
887.841	409.34
888.146	360.82
888.452	450.19
888.757	391.46
889.062	368.48
889.367	340.4
889.672	365.93
889.977	386.36
890.282	396.57
890.587	365.93
890.892	376.14
891.196	363.38
891.501	399.12
891.806	358.27
892.11	399.12
892.415	353.16
892.72	363.38
893.024	386.36
893.328	452.75
893.633	335.29
893.937	291.88
894.242	404.23
894.546	342.95
894.85	371.04
895.154	394.02
895.458	409.34
895.762	399.12
896.066	388.91
896.37	376.14
896.674	363.38
896.978	417
897.282	391.46
897.586	371.04
897.89	337.84
898.193	342.95
898.497	342.95
898.801	365.93
899.104	406.79
899.408	417
899.711	383.8
900.014	373.59
900.318	337.84
900.621	399.12
900.924	404.23
901.228	419.55
901.531	322.52
901.834	340.4
902.137	314.86
902.44	399.12
902.743	345.5
903.046	445.09
903.349	406.79
903.652	424.66
903.955	365.93
904.257	414.45
904.56	404.23
904.863	363.38
905.165	342.95
905.468	373.59
905.77	439.98
906.073	419.55
906.375	348.06
906.678	358.27
906.98	373.59
907.282	437.43
907.584	391.46
907.887	391.46
908.189	325.08
908.491	445.09
908.793	445.09
909.095	365.93
909.397	376.14
909.699	327.63
910.001	373.59
910.302	388.91
910.604	399.12
910.906	439.98
911.208	371.04
911.509	388.91
911.811	309.76
912.112	350.61
912.414	386.36
912.715	447.64
913.017	376.14
913.318	371.04
913.619	406.79
913.92	445.09
914.222	470.62
914.523	363.38
914.824	330.18
915.125	363.38
915.426	353.16
915.727	330.18
916.028	348.06
916.329	386.36
916.63	419.55
916.93	363.38
917.231	330.18
917.532	386.36
917.832	409.34
918.133	381.25
918.434	409.34
918.734	340.4
919.034	383.8
919.335	406.79
919.635	406.79
919.935	488.49
920.236	462.96
920.536	429.77
920.836	409.34
921.136	429.77
921.436	496.15
921.736	417
922.036	340.4
922.336	360.82
922.636	406.79
922.936	439.98
923.236	368.48
923.535	447.64
923.835	417
924.135	332.74
924.434	376.14
924.734	350.61
925.033	373.59
925.333	327.63
925.632	322.52
925.932	353.16
926.231	345.5
926.53	399.12
926.83	406.79
927.129	434.87
927.428	475.73
927.727	378.7
928.026	417
928.325	404.23
928.624	419.55
928.923	394.02
929.222	350.61
929.52	399.12
929.819	409.34
930.118	432.32
930.417	424.66
930.715	355.72
931.014	371.04
931.312	447.64
931.611	442.53
931.909	353.16
932.207	455.3
932.506	371.04
932.804	404.23
933.102	427.21
933.401	317.42
933.699	337.84
933.997	376.14
934.295	291.88
934.593	348.06
934.891	452.75
935.189	411.89
935.487	439.98
935.784	516.58
936.082	452.75
936.38	365.93
936.677	360.82
936.975	314.86
937.273	414.45
937.57	411.89
937.868	348.06
938.165	365.93
938.463	414.45
938.76	450.19
939.057	340.4
939.354	381.25
939.652	378.7
939.949	337.84
940.246	406.79
940.543	401.68
940.84	335.29
941.137	391.46
941.434	376.14
941.731	383.8
942.028	360.82
942.324	353.16
942.621	422.11
942.918	332.74
943.214	373.59
943.511	335.29
943.807	358.27
944.104	350.61
944.4	404.23
944.697	317.42
944.993	342.95
945.29	340.4
945.586	355.72
945.882	404.23
946.178	411.89
946.474	368.48
946.77	376.14
947.066	409.34
947.362	363.38
947.658	427.21
947.954	365.93
948.25	399.12
948.546	442.53
948.842	399.12
949.137	353.16
949.433	363.38
949.729	350.61
950.024	437.43
950.32	376.14
950.615	394.02
950.91	337.84
951.206	360.82
951.501	394.02
951.796	363.38
952.092	434.87
952.387	371.04
952.682	381.25
952.977	394.02
953.272	450.19
953.567	429.77
953.862	345.5
954.157	432.32
954.452	363.38
954.747	345.5
955.041	376.14
955.336	424.66
955.631	427.21
955.925	373.59
956.22	450.19
956.514	439.98
956.809	409.34
957.103	414.45
957.398	353.16
957.692	325.08
957.986	340.4
958.281	427.21
958.575	373.59
958.869	332.74
959.163	383.8
959.457	401.68
959.751	419.55
960.045	419.55
960.339	399.12
960.633	378.7
960.927	437.43
961.221	401.68
961.514	376.14
961.808	391.46
962.102	411.89
962.395	337.84
962.689	365.93
962.982	434.87
963.276	427.21
963.569	427.21
963.862	437.43
964.156	261.24
964.449	332.74
964.742	358.27
965.035	348.06
965.328	312.31
965.622	358.27
965.915	404.23
966.208	386.36
966.5	376.14
966.793	439.98
967.086	381.25
967.379	373.59
967.672	399.12
967.964	363.38
968.257	457.85
968.55	422.11
968.842	342.95
969.135	355.72
969.427	342.95
969.72	404.23
970.012	381.25
970.304	460.41
970.597	409.34
970.889	337.84
971.181	424.66
971.473	406.79
971.765	411.89
972.057	401.68
972.349	355.72
972.641	358.27
972.933	332.74
973.225	345.5
973.517	314.86
973.809	358.27
974.1	340.4
974.392	383.8
974.684	388.91
974.975	378.7
975.267	381.25
975.558	330.18
975.85	353.16
976.141	319.97
976.432	284.22
976.724	386.36
977.015	335.29
977.306	399.12
977.597	417
977.888	353.16
978.179	388.91
978.47	465.51
978.761	381.25
979.052	378.7
979.343	383.8
979.634	411.89
979.925	332.74
980.215	345.5
980.506	396.57
980.797	399.12
981.087	401.68
981.378	399.12
981.668	404.23
981.959	388.91
982.249	376.14
982.54	371.04
982.83	437.43
983.12	429.77
983.41	427.21
983.701	434.87
983.991	381.25
984.281	388.91
984.571	381.25
984.861	358.27
985.151	455.3
985.441	462.96
985.73	330.18
986.02	401.68
986.31	376.14
986.6	358.27
986.889	437.43
987.179	376.14
987.469	345.5
987.758	383.8
988.048	396.57
988.337	348.06
988.626	455.3
988.916	424.66
989.205	394.02
989.494	373.59
989.783	355.72
990.073	388.91
990.362	419.55
990.651	394.02
990.94	383.8
991.229	358.27
991.518	345.5
991.806	371.04
992.095	419.55
992.384	322.52
992.673	447.64
992.961	460.41
993.25	325.08
993.539	422.11
993.827	394.02
994.116	378.7
994.404	350.61
994.692	353.16
994.981	411.89
995.269	409.34
995.557	396.57
995.846	350.61
996.134	399.12
996.422	437.43
996.71	365.93
996.998	337.84
997.286	376.14
997.574	391.46
997.862	388.91
998.15	394.02
998.437	391.46
998.725	348.06
999.013	427.21
999.3	452.75
999.588	419.55
999.876	376.14
1000.163	345.5
1000.45	363.38
1000.738	340.4
1001.025	319.97
1001.313	409.34
1001.6	409.34
1001.887	419.55
1002.174	360.82
1002.461	422.11
1002.748	442.53
1003.036	314.86
1003.322	350.61
1003.609	391.46
1003.896	437.43
1004.183	340.4
1004.47	337.84
1004.757	360.82
1005.043	401.68
1005.33	378.7
1005.617	330.18
1005.903	381.25
1006.19	299.54
1006.476	406.79
1006.763	447.64
1007.049	304.65
1007.335	417
1007.622	396.57
1007.908	348.06
1008.194	378.7
1008.48	388.91
1008.766	409.34
1009.053	378.7
1009.339	437.43
1009.625	401.68
1009.91	422.11
1010.196	391.46
1010.482	411.89
1010.768	378.7
1011.054	376.14
1011.339	391.46
1011.625	381.25
1011.911	401.68
1012.196	350.61
1012.482	388.91
1012.767	447.64
1013.052	406.79
1013.338	325.08
1013.623	422.11
1013.908	432.32
1014.194	394.02
1014.479	414.45
1014.764	332.74
1015.049	401.68
1015.334	391.46
1015.619	414.45
1015.904	296.99
1016.189	388.91
1016.474	437.43
1016.758	371.04
1017.043	348.06
1017.328	365.93
1017.613	391.46
1017.897	409.34
1018.182	365.93
1018.466	309.76
1018.751	327.63
1019.035	396.57
1019.32	325.08
1019.604	332.74
1019.888	355.72
1020.172	355.72
1020.457	355.72
