Data from 2025-12-03_xpw_interference_micrometer_634_FLMS141361__80__130.txt Node

Date: Wed Dec 03 15:48:44 MST 2025
User: james
Spectrometer: FLMS14136
Trigger mode: 0
Integration Time (sec): 1.000000E-1
Scans to average: 1
Electric dark correction enabled: true
Nonlinearity correction enabled: false
Boxcar width: 0
XAxis mode: Wavelengths
Number of Pixels in Spectrum: 2048
>>>>>Begin Spectral Data<<<<<
339.315	-36.07
339.697	-36.07
340.079	-36.07
340.461	-105.01
340.843	-59.05
341.225	-66.71
341.607	-79.47
341.989	-138.2
342.371	-94.79
342.752	-61.6
343.134	-51.39
343.516	-10.53
343.897	-36.07
344.279	-13.09
344.661	12.45
345.042	89.05
345.423	48.2
345.805	45.64
346.186	104.37
346.567	132.46
346.949	119.69
347.33	109.48
347.711	178.42
348.092	168.2
348.473	180.97
348.854	180.97
349.235	272.89
349.616	300.98
349.997	244.81
350.378	288.21
350.758	385.24
351.139	303.53
351.52	377.58
351.9	390.35
352.281	306.09
352.661	288.21
353.042	334.17
353.422	446.52
353.803	454.18
354.183	451.63
354.563	387.79
354.943	390.35
355.324	426.09
355.704	408.22
356.084	398.01
356.464	385.24
356.844	433.76
357.224	456.74
357.603	385.24
357.983	405.67
358.363	390.35
358.743	377.58
359.122	456.74
359.502	349.49
359.882	375.03
360.261	285.66
360.641	318.85
361.02	477.16
361.399	336.73
361.779	329.07
362.158	400.56
362.537	408.22
362.916	400.56
363.296	390.35
363.675	316.3
364.054	321.41
364.433	375.03
364.812	341.83
365.19	326.51
365.569	349.49
365.948	372.47
366.327	293.32
366.705	336.73
367.084	380.13
367.463	372.47
367.841	352.05
368.22	329.07
368.598	278
368.977	300.98
369.355	341.83
369.733	413.33
370.111	341.83
370.49	336.73
370.868	352.05
371.246	341.83
371.624	403.11
372.002	403.11
372.38	390.35
372.758	377.58
373.136	357.15
373.513	377.58
373.891	377.58
374.269	341.83
374.646	410.77
375.024	344.39
375.402	380.13
375.779	395.45
376.157	377.58
376.534	341.83
376.911	349.49
377.289	311.19
377.666	390.35
378.043	329.07
378.42	413.33
378.797	398.01
379.175	311.19
379.552	372.47
379.929	418.43
380.305	403.11
380.682	390.35
381.059	357.15
381.436	387.79
381.813	323.96
382.189	372.47
382.566	336.73
382.943	385.24
383.319	369.92
383.696	420.99
384.072	418.43
384.448	400.56
384.825	369.92
385.201	346.94
385.577	408.22
385.953	369.92
386.329	352.05
386.706	352.05
387.082	395.45
387.458	359.71
387.834	413.33
388.209	352.05
388.585	474.61
388.961	410.77
389.337	352.05
389.713	398.01
390.088	336.73
390.464	387.79
390.839	423.54
391.215	392.9
391.59	339.28
391.966	446.52
392.341	400.56
392.716	311.19
393.092	382.69
393.467	433.76
393.842	385.24
394.217	423.54
394.592	377.58
394.967	336.73
395.342	367.37
395.717	359.71
396.092	372.47
396.467	405.67
396.841	369.92
397.216	339.28
397.591	413.33
397.965	377.58
398.34	456.74
398.714	377.58
399.089	326.51
399.463	418.43
399.838	436.31
400.212	323.96
400.586	349.49
400.961	339.28
401.335	323.96
401.709	380.13
402.083	323.96
402.457	352.05
402.831	408.22
403.205	431.2
403.579	326.51
403.953	364.81
404.326	377.58
404.7	420.99
405.074	362.26
405.447	400.56
405.821	405.67
406.195	395.45
406.568	367.37
406.942	398.01
407.315	443.97
407.688	472.06
408.062	390.35
408.435	410.77
408.808	354.6
409.181	408.22
409.554	382.69
409.927	352.05
410.3	377.58
410.673	395.45
411.046	364.81
411.419	418.43
411.792	316.3
412.165	380.13
412.537	395.45
412.91	364.81
413.283	415.88
413.655	354.6
414.028	418.43
414.4	385.24
414.773	375.03
415.145	359.71
415.517	405.67
415.889	385.24
416.262	405.67
416.634	390.35
417.006	367.37
417.378	395.45
417.75	420.99
418.122	395.45
418.494	464.4
418.866	456.74
419.238	426.09
419.609	403.11
419.981	431.2
420.353	398.01
420.725	359.71
421.096	400.56
421.468	398.01
421.839	443.97
422.211	400.56
422.582	443.97
422.953	392.9
423.325	405.67
423.696	372.47
424.067	413.33
424.438	428.65
424.809	438.86
425.18	339.28
425.551	433.76
425.922	474.61
426.293	390.35
426.664	415.88
427.035	428.65
427.406	362.26
427.776	331.62
428.147	367.37
428.518	390.35
428.888	339.28
429.259	392.9
429.629	382.69
429.999	441.42
430.37	454.18
430.74	387.79
431.11	474.61
431.481	387.79
431.851	311.19
432.221	423.54
432.591	390.35
432.961	357.15
433.331	431.2
433.701	408.22
434.071	367.37
434.441	413.33
434.81	436.31
435.18	438.86
435.55	359.71
435.919	385.24
436.289	454.18
436.658	420.99
437.028	441.42
437.397	387.79
437.767	461.84
438.136	392.9
438.505	413.33
438.875	377.58
439.244	410.77
439.613	408.22
439.982	398.01
440.351	413.33
440.72	466.95
441.089	346.94
441.458	410.77
441.827	354.6
442.196	423.54
442.564	523.12
442.933	441.42
443.302	464.4
443.67	410.77
444.039	474.61
444.407	408.22
444.776	413.33
445.144	377.58
445.513	428.65
445.881	392.9
446.249	451.63
446.617	398.01
446.986	487.38
447.354	472.06
447.722	418.43
448.09	474.61
448.458	390.35
448.826	441.42
449.194	454.18
449.561	451.63
449.929	362.26
450.297	398.01
450.665	403.11
451.032	336.73
451.4	403.11
451.767	341.83
452.135	451.63
452.502	408.22
452.87	410.77
453.237	377.58
453.604	413.33
453.971	403.11
454.339	415.88
454.706	423.54
455.073	405.67
455.44	403.11
455.807	372.47
456.174	466.95
456.541	413.33
456.908	477.16
457.274	382.69
457.641	403.11
458.008	420.99
458.374	449.08
458.741	400.56
459.108	449.08
459.474	459.29
459.841	443.97
460.207	395.45
460.573	489.93
460.94	441.42
461.306	426.09
461.672	449.08
462.038	482.27
462.404	400.56
462.771	362.26
463.137	446.52
463.503	385.24
463.868	392.9
464.234	341.83
464.6	403.11
464.966	354.6
465.332	405.67
465.697	403.11
466.063	387.79
466.429	398.01
466.794	431.2
467.16	415.88
467.525	403.11
467.89	420.99
468.256	441.42
468.621	464.4
468.986	441.42
469.351	403.11
469.717	341.83
470.082	372.47
470.447	387.79
470.812	346.94
471.177	438.86
471.542	398.01
471.906	443.97
472.271	466.95
472.636	364.81
473.001	446.52
473.365	456.74
473.73	423.54
474.094	451.63
474.459	451.63
474.823	369.92
475.188	329.07
475.552	367.37
475.917	454.18
476.281	438.86
476.645	454.18
477.009	392.9
477.373	400.56
477.737	423.54
478.101	482.27
478.465	408.22
478.829	449.08
479.193	469.5
479.557	423.54
479.921	408.22
480.284	380.13
480.648	420.99
481.012	415.88
481.375	433.76
481.739	487.38
482.102	377.58
482.466	418.43
482.829	523.12
483.193	454.18
483.556	405.67
483.919	420.99
484.282	375.03
484.645	428.65
485.009	423.54
485.372	466.95
485.735	403.11
486.098	329.07
486.46	456.74
486.823	408.22
487.186	405.67
487.549	346.94
487.912	382.69
488.274	375.03
488.637	380.13
488.999	420.99
489.362	410.77
489.724	449.08
490.087	451.63
490.449	367.37
490.811	377.58
491.174	449.08
491.536	369.92
491.898	433.76
492.26	375.03
492.622	441.42
492.984	461.84
493.346	464.4
493.708	428.65
494.07	420.99
494.432	464.4
494.794	418.43
495.155	387.79
495.517	400.56
495.879	418.43
496.24	392.9
496.602	364.81
496.963	390.35
497.325	459.29
497.686	446.52
498.048	443.97
498.409	436.31
498.77	413.33
499.131	395.45
499.492	446.52
499.854	387.79
500.215	420.99
500.576	423.54
500.937	461.84
501.298	395.45
501.658	415.88
502.019	515.46
502.38	413.33
502.741	382.69
503.101	375.03
503.462	410.77
503.823	423.54
504.183	377.58
504.543	438.86
504.904	405.67
505.264	387.79
505.625	423.54
505.985	390.35
506.345	461.84
506.705	497.59
507.065	436.31
507.426	413.33
507.786	428.65
508.146	459.29
508.505	446.52
508.865	436.31
509.225	418.43
509.585	487.38
509.945	431.2
510.304	426.09
510.664	446.52
511.024	405.67
511.383	472.06
511.743	423.54
512.102	441.42
512.462	344.39
512.821	415.88
513.18	413.33
513.539	469.5
513.899	438.86
514.258	456.74
514.617	385.24
514.976	377.58
515.335	441.42
515.694	441.42
516.053	410.77
516.412	477.16
516.771	441.42
517.129	464.4
517.488	474.61
517.847	428.65
518.205	400.56
518.564	433.76
518.922	459.29
519.281	469.5
519.639	395.45
519.998	398.01
520.356	438.86
520.714	415.88
521.073	472.06
521.431	431.2
521.789	400.56
522.147	415.88
522.505	492.48
522.863	433.76
523.221	418.43
523.579	408.22
523.937	456.74
524.295	408.22
524.652	433.76
525.01	492.48
525.368	446.52
525.725	477.16
526.083	461.84
526.44	413.33
526.798	433.76
527.155	405.67
527.513	354.6
527.87	392.9
528.227	423.54
528.584	495.04
528.942	426.09
529.299	395.45
529.656	449.08
530.013	489.93
530.37	392.9
530.727	431.2
531.083	441.42
531.44	497.59
531.797	507.8
532.154	413.33
532.511	367.37
532.867	418.43
533.224	390.35
533.58	385.24
533.937	392.9
534.293	395.45
534.65	446.52
535.006	449.08
535.362	456.74
535.718	392.9
536.075	354.6
536.431	385.24
536.787	446.52
537.143	426.09
537.499	357.15
537.855	461.84
538.211	466.95
538.567	385.24
538.923	405.67
539.278	426.09
539.634	387.79
539.99	390.35
540.345	420.99
540.701	380.13
541.056	380.13
541.412	451.63
541.767	377.58
542.123	428.65
542.478	443.97
542.833	438.86
543.188	433.76
543.544	415.88
543.899	441.42
544.254	413.33
544.609	385.24
544.964	474.61
545.319	420.99
545.674	438.86
546.029	484.82
546.383	461.84
546.738	367.37
547.093	372.47
547.447	431.2
547.802	428.65
548.157	428.65
548.511	477.16
548.866	362.26
549.22	454.18
549.574	364.81
549.929	415.88
550.283	400.56
550.637	433.76
550.991	418.43
551.345	477.16
551.699	477.16
552.053	443.97
552.407	331.62
552.761	400.56
553.115	400.56
553.469	420.99
553.823	423.54
554.176	423.54
554.53	454.18
554.884	392.9
555.237	617.6
555.591	454.18
555.944	459.29
556.298	479.72
556.651	469.5
557.005	479.72
557.358	362.26
557.711	436.31
558.064	431.2
558.417	385.24
558.771	451.63
559.124	469.5
559.477	497.59
559.83	398.01
560.182	436.31
560.535	551.21
560.888	461.84
561.241	431.2
561.594	472.06
561.946	339.28
562.299	410.77
562.651	403.11
563.004	433.76
563.356	423.54
563.709	418.43
564.061	418.43
564.413	438.86
564.766	464.4
565.118	346.94
565.47	431.2
565.822	466.95
566.174	497.59
566.526	367.37
566.878	405.67
567.23	372.47
567.582	426.09
567.934	441.42
568.286	420.99
568.638	415.88
568.989	500.14
569.341	415.88
569.693	403.11
570.044	382.69
570.396	441.42
570.747	451.63
571.098	410.77
571.45	387.79
571.801	408.22
572.152	428.65
572.504	428.65
572.855	403.11
573.206	395.45
573.557	436.31
573.908	451.63
574.259	415.88
574.61	403.11
574.961	405.67
575.311	400.56
575.662	336.73
576.013	369.92
576.364	454.18
576.714	415.88
577.065	438.86
577.415	395.45
577.766	449.08
578.116	377.58
578.467	420.99
578.817	420.99
579.167	375.03
579.518	446.52
579.868	466.95
580.218	433.76
580.568	428.65
580.918	359.71
581.268	431.2
581.618	451.63
581.968	403.11
582.318	436.31
582.668	418.43
583.017	438.86
583.367	479.72
583.717	428.65
584.066	390.35
584.416	420.99
584.765	385.24
585.115	375.03
585.464	390.35
585.814	392.9
586.163	459.29
586.512	354.6
586.862	420.99
587.211	398.01
587.56	367.37
587.909	426.09
588.258	420.99
588.607	479.72
588.956	420.99
589.305	364.81
589.654	451.63
590.002	479.72
590.351	405.67
590.7	418.43
591.048	400.56
591.397	372.47
591.746	385.24
592.094	466.95
592.443	451.63
592.791	459.29
593.139	525.68
593.488	364.81
593.836	410.77
594.184	469.5
594.532	410.77
594.88	443.97
595.228	400.56
595.576	398.01
595.924	436.31
596.272	413.33
596.62	408.22
596.968	438.86
597.316	375.03
597.664	385.24
598.011	382.69
598.359	405.67
598.706	446.52
599.054	415.88
599.402	410.77
599.749	346.94
600.096	400.56
600.444	441.42
600.791	426.09
601.138	449.08
601.485	497.59
601.833	418.43
602.18	367.37
602.527	400.56
602.874	385.24
603.221	405.67
603.568	395.45
603.914	400.56
604.261	403.11
604.608	369.92
604.955	426.09
605.301	431.2
605.648	449.08
605.995	423.54
606.341	362.26
606.688	354.6
607.034	469.5
607.38	431.2
607.727	438.86
608.073	443.97
608.419	441.42
608.765	354.6
609.112	387.79
609.458	400.56
609.804	392.9
610.15	367.37
610.496	410.77
610.842	431.2
611.187	459.29
611.533	418.43
611.879	385.24
612.225	459.29
612.57	449.08
612.916	451.63
613.261	436.31
613.607	375.03
613.952	390.35
614.298	472.06
614.643	469.5
614.989	451.63
615.334	431.2
615.679	418.43
616.024	484.82
616.369	380.13
616.714	377.58
617.059	311.19
617.404	375.03
617.749	372.47
618.094	413.33
618.439	533.34
618.784	433.76
619.129	456.74
619.473	418.43
619.818	403.11
620.163	443.97
620.507	387.79
620.852	400.56
621.196	410.77
621.54	403.11
621.885	418.43
622.229	410.77
622.573	382.69
622.918	433.76
623.262	443.97
623.606	431.2
623.95	413.33
624.294	403.11
624.638	403.11
624.982	418.43
625.326	489.93
625.67	382.69
626.013	377.58
626.357	403.11
626.701	405.67
627.044	436.31
627.388	454.18
627.731	415.88
628.075	331.62
628.418	410.77
628.762	380.13
629.105	387.79
629.448	446.52
629.792	433.76
630.135	403.11
630.478	418.43
630.821	420.99
631.164	472.06
631.507	443.97
631.85	413.33
632.193	431.2
632.536	459.29
632.879	367.37
633.221	413.33
633.564	505.25
633.907	387.79
634.249	375.03
634.592	431.2
634.935	474.61
635.277	454.18
635.619	395.45
635.962	410.77
636.304	398.01
636.646	398.01
636.989	449.08
637.331	492.48
637.673	438.86
638.015	390.35
638.357	420.99
638.699	349.49
639.041	418.43
639.383	482.27
639.725	403.11
640.067	418.43
640.408	469.5
640.75	420.99
641.092	377.58
641.433	392.9
641.775	456.74
642.116	420.99
642.458	408.22
642.799	426.09
643.141	398.01
643.482	431.2
643.823	398.01
644.164	390.35
644.506	466.95
644.847	385.24
645.188	433.76
645.529	436.31
645.87	403.11
646.211	395.45
646.552	426.09
646.893	403.11
647.233	400.56
647.574	484.82
647.915	436.31
648.255	451.63
648.596	443.97
648.937	357.15
649.277	398.01
649.618	466.95
649.958	459.29
650.298	474.61
650.639	405.67
650.979	405.67
651.319	390.35
651.659	375.03
651.999	418.43
652.339	390.35
652.679	369.92
653.019	392.9
653.359	436.31
653.699	375.03
654.039	423.54
654.379	443.97
654.719	428.65
655.058	364.81
655.398	426.09
655.737	474.61
656.077	403.11
656.416	400.56
656.756	446.52
657.095	426.09
657.435	382.69
657.774	316.3
658.113	443.97
658.452	441.42
658.792	431.2
659.131	352.05
659.47	349.49
659.809	413.33
660.148	428.65
660.487	449.08
660.826	398.01
661.164	387.79
661.503	352.05
661.842	426.09
662.181	390.35
662.519	395.45
662.858	436.31
663.196	408.22
663.535	385.24
663.873	367.37
664.212	415.88
664.55	436.31
664.888	349.49
665.226	359.71
665.565	415.88
665.903	584.4
666.241	477.16
666.579	362.26
666.917	413.33
667.255	390.35
667.593	387.79
667.931	375.03
668.268	449.08
668.606	382.69
668.944	357.15
669.282	410.77
669.619	385.24
669.957	405.67
670.294	362.26
670.632	436.31
670.969	403.11
671.307	431.2
671.644	420.99
671.981	392.9
672.318	385.24
672.656	428.65
672.993	341.83
673.33	423.54
673.667	387.79
674.004	375.03
674.341	380.13
674.678	387.79
675.015	377.58
675.351	466.95
675.688	477.16
676.025	459.29
676.362	461.84
676.698	446.52
677.035	477.16
677.371	380.13
677.708	400.56
678.044	382.69
678.38	354.6
678.717	369.92
679.053	346.94
679.389	392.9
679.725	367.37
680.062	426.09
680.398	433.76
680.734	385.24
681.07	372.47
681.406	334.17
681.742	420.99
682.077	392.9
682.413	431.2
682.749	438.86
683.085	390.35
683.42	341.83
683.756	408.22
684.091	372.47
684.427	369.92
684.762	392.9
685.098	387.79
685.433	364.81
685.768	459.29
686.104	413.33
686.439	398.01
686.774	415.88
687.109	375.03
687.444	431.2
687.779	382.69
688.114	420.99
688.449	436.31
688.784	426.09
689.119	357.15
689.454	403.11
689.789	398.01
690.123	395.45
690.458	420.99
690.792	400.56
691.127	443.97
691.461	410.77
691.796	390.35
692.13	387.79
692.465	367.37
692.799	438.86
693.133	449.08
693.467	449.08
693.802	349.49
694.136	420.99
694.47	375.03
694.804	415.88
695.138	405.67
695.472	469.5
695.806	387.79
696.139	405.67
696.473	405.67
696.807	364.81
697.141	420.99
697.474	369.92
697.808	400.56
698.141	477.16
698.475	375.03
698.808	423.54
699.142	413.33
699.475	438.86
699.808	395.45
700.142	364.81
700.475	464.4
700.808	413.33
701.141	344.39
701.474	395.45
701.807	410.77
702.14	306.09
702.473	408.22
702.806	400.56
703.139	390.35
703.472	362.26
703.804	390.35
704.137	380.13
704.47	428.65
704.802	459.29
705.135	428.65
705.467	306.09
705.8	408.22
706.132	369.92
706.464	487.38
706.797	420.99
707.129	415.88
707.461	395.45
707.793	377.58
708.125	364.81
708.457	403.11
708.789	446.52
709.121	410.77
709.453	420.99
709.785	390.35
710.117	341.83
710.449	436.31
710.781	479.72
711.112	423.54
711.444	443.97
711.775	398.01
712.107	395.45
712.438	344.39
712.77	403.11
713.101	423.54
713.433	323.96
713.764	318.85
714.095	354.6
714.426	418.43
714.757	372.47
715.089	385.24
715.42	443.97
715.751	405.67
716.082	420.99
716.412	295.87
716.743	410.77
717.074	428.65
717.405	420.99
717.736	449.08
718.066	364.81
718.397	443.97
718.727	436.31
719.058	423.54
719.388	436.31
719.719	405.67
720.049	438.86
720.38	477.16
720.71	474.61
721.04	359.71
721.37	477.16
721.7	451.63
722.031	380.13
722.361	413.33
722.691	418.43
723.021	436.31
723.35	408.22
723.68	459.29
724.01	428.65
724.34	395.45
724.67	436.31
724.999	446.52
725.329	390.35
725.658	369.92
725.988	380.13
726.317	426.09
726.647	344.39
726.976	413.33
727.306	418.43
727.635	413.33
727.964	385.24
728.293	436.31
728.622	433.76
728.952	420.99
729.281	495.04
729.61	405.67
729.939	395.45
730.267	357.15
730.596	418.43
730.925	392.9
731.254	349.49
731.583	359.71
731.911	359.71
732.24	410.77
732.568	387.79
732.897	428.65
733.225	438.86
733.554	377.58
733.882	387.79
734.21	380.13
734.539	400.56
734.867	405.67
735.195	405.67
735.523	390.35
735.851	382.69
736.179	418.43
736.507	375.03
736.835	446.52
737.163	357.15
737.491	479.72
737.819	472.06
738.147	436.31
738.474	405.67
738.802	395.45
739.13	400.56
739.457	423.54
739.785	395.45
740.112	405.67
740.44	426.09
740.767	372.47
741.094	392.9
741.422	395.45
741.749	426.09
742.076	472.06
742.403	449.08
742.73	443.97
743.057	375.03
743.384	420.99
743.711	398.01
744.038	385.24
744.365	443.97
744.692	359.71
745.018	367.37
745.345	380.13
745.672	390.35
745.998	418.43
746.325	398.01
746.651	375.03
746.978	484.82
747.304	428.65
747.631	375.03
747.957	385.24
748.283	426.09
748.61	352.05
748.936	354.6
749.262	431.2
749.588	400.56
749.914	446.52
750.24	469.5
750.566	334.17
750.892	449.08
751.218	352.05
751.543	380.13
751.869	446.52
752.195	420.99
752.521	410.77
752.846	454.18
753.172	464.4
753.497	426.09
753.823	377.58
754.148	418.43
754.473	352.05
754.799	372.47
755.124	364.81
755.449	451.63
755.774	436.31
756.1	464.4
756.425	418.43
756.75	431.2
757.075	433.76
757.4	477.16
757.724	438.86
758.049	451.63
758.374	449.08
758.699	408.22
759.024	431.2
759.348	400.56
759.673	382.69
759.997	466.95
760.322	451.63
760.646	408.22
760.971	408.22
761.295	428.65
761.619	528.23
761.944	438.86
762.268	512.91
762.592	523.12
762.916	456.74
763.24	569.08
763.564	569.08
763.888	520.57
764.212	546.1
764.536	461.84
764.86	487.38
765.184	502.7
765.508	553.76
765.831	627.81
766.155	862.72
766.478	885.7
766.802	949.54
767.126	1133.38
767.449	1250.84
767.772	1490.85
768.096	1503.62
768.419	1416.81
768.742	1319.78
769.066	1250.84
769.389	1130.83
769.712	939.32
770.035	819.32
770.358	775.91
770.681	959.75
771.004	1074.65
771.327	1345.31
771.65	1654.27
771.972	2116.43
772.295	2494.33
772.618	2864.57
772.941	2816.06
773.263	2841.59
773.586	2644.98
773.908	2501.99
774.231	2226.23
774.553	1815.13
774.875	1536.81
775.198	1273.82
775.52	1141.04
775.842	1284.03
776.164	1585.33
776.487	2261.97
776.809	2703.71
777.131	3280.77
777.453	3771.02
777.775	3977.84
778.096	4396.6
778.418	4281.7
778.74	3753.15
779.062	3211.83
779.384	2869.68
779.705	2501.99
780.027	2113.88
780.348	1587.88
780.67	1429.57
780.991	1503.62
781.313	1947.91
781.634	2851.8
781.955	3594.84
782.277	4649.38
782.598	5754.99
782.919	6482.71
783.24	6801.88
783.561	7044.45
783.882	6796.77
784.203	6122.68
784.524	5262.19
784.845	4133.6
785.166	2994.79
785.487	2251.76
785.807	1751.3
786.128	1434.68
786.449	1427.02
786.769	1970.89
787.09	2879.89
787.41	4146.37
787.731	5857.13
788.051	7647.05
788.372	8525.41
788.692	9822.53
789.012	10731.53
789.332	10294.9
789.653	10042.12
789.973	8816.5
790.293	6799.33
790.613	4746.41
790.933	3367.59
791.253	2338.58
791.573	1613.42
791.893	1386.17
792.212	1595.54
792.532	2167.5
792.852	2979.47
793.171	4067.21
793.491	4909.83
793.811	5892.88
794.13	6505.69
794.45	6692.08
794.769	6383.13
795.088	6355.04
795.408	5834.15
795.727	5359.22
796.046	4192.33
796.365	3362.48
796.684	2348.79
797.004	1725.76
797.323	1268.71
797.642	1255.94
797.96	1531.71
798.279	2177.71
798.598	2964.15
798.917	4079.98
799.236	4868.97
799.554	5165.16
799.873	5540.51
800.192	6623.14
800.51	7251.27
800.829	6967.85
801.147	6227.37
801.466	5331.13
801.784	4682.58
802.102	3571.86
802.421	2731.8
802.739	2126.64
803.057	1605.76
803.375	1250.84
803.693	1156.36
804.011	1317.22
804.329	1884.07
804.647	2404.96
804.965	3170.98
805.283	3957.42
805.601	4409.36
805.918	5065.58
806.236	5494.55
806.554	5463.91
806.871	5469.02
807.189	5573.71
807.507	5292.83
807.824	4485.97
808.141	3633.14
808.459	2599.02
808.776	1799.81
809.093	1261.05
809.411	1031.25
809.728	788.67
810.045	888.26
810.362	1128.27
810.679	1352.97
810.996	1743.64
811.313	2241.55
811.63	2902.87
811.947	3155.66
812.264	3293.54
812.58	3306.31
812.897	3268
813.214	3206.72
813.53	3035.65
813.847	2808.4
814.163	2392.2
814.48	1998.98
814.796	1595.54
815.113	1199.77
815.429	849.96
815.745	750.37
816.061	589.51
816.378	735.05
816.694	821.87
817.01	1082.31
817.326	1450
817.642	1687.46
817.958	1840.67
818.274	1884.07
818.59	1983.66
818.905	1901.95
819.221	2139.41
819.537	2216.01
819.852	2078.13
820.168	1970.89
820.484	1766.62
820.799	1495.96
821.115	1345.31
821.43	1102.74
821.745	906.13
822.061	676.33
822.376	612.49
822.691	615.04
823.006	650.79
823.322	661.01
823.637	750.37
823.952	921.45
824.267	934.22
824.582	1095.08
824.897	1253.39
825.211	1337.65
825.526	1434.68
825.841	1383.61
826.156	1393.83
826.47	1406.59
826.785	1248.28
827.1	1123.17
827.414	954.64
827.729	832.08
828.043	758.03
828.357	638.03
828.672	456.74
828.986	520.57
829.3	525.68
829.614	510.36
829.929	602.28
830.243	666.11
830.557	747.82
830.871	683.99
831.185	691.65
831.499	737.61
831.812	847.4
832.126	959.75
832.44	1044.01
832.754	1028.69
833.067	1072.1
833.381	906.13
833.695	901.02
834.008	826.98
834.322	814.21
834.635	747.82
834.948	630.37
835.262	627.81
835.575	528.23
835.888	456.74
836.201	382.69
836.515	420.99
836.828	433.76
837.141	390.35
837.454	415.88
837.767	546.1
838.08	541
838.392	586.96
838.705	566.53
839.018	553.76
839.331	638.03
839.643	645.69
839.956	586.96
840.269	602.28
840.581	541
840.894	566.53
841.206	515.46
841.519	658.45
841.831	492.48
842.143	538.44
842.455	408.22
842.768	413.33
843.08	362.26
843.392	398.01
843.704	436.31
844.016	420.99
844.328	418.43
844.64	474.61
844.952	456.74
845.263	426.09
845.575	484.82
845.887	497.59
846.199	474.61
846.51	512.91
846.822	502.7
847.133	387.79
847.445	395.45
847.756	454.18
848.068	438.86
848.379	438.86
848.69	420.99
849.002	385.24
849.313	438.86
849.624	461.84
849.935	395.45
850.246	423.54
850.557	405.67
850.868	431.2
851.179	413.33
851.49	446.52
851.801	346.94
852.112	410.77
852.422	423.54
852.733	474.61
853.044	354.6
853.354	390.35
853.665	398.01
853.975	398.01
854.286	387.79
854.596	420.99
854.906	423.54
855.217	390.35
855.527	390.35
855.837	441.42
856.147	433.76
856.458	423.54
856.768	403.11
857.078	418.43
857.388	398.01
857.698	428.65
858.007	403.11
858.317	423.54
858.627	395.45
858.937	390.35
859.246	385.24
859.556	346.94
859.866	408.22
860.175	400.56
860.485	408.22
860.794	349.49
861.104	344.39
861.413	405.67
861.722	377.58
862.032	375.03
862.341	423.54
862.65	420.99
862.959	369.92
863.268	451.63
863.577	400.56
863.886	387.79
864.195	377.58
864.504	357.15
864.813	346.94
865.122	489.93
865.43	431.2
865.739	390.35
866.048	364.81
866.356	472.06
866.665	395.45
866.973	408.22
867.282	382.69
867.59	375.03
867.899	357.15
868.207	451.63
868.515	415.88
868.823	413.33
869.132	405.67
869.44	446.52
869.748	408.22
870.056	400.56
870.364	382.69
870.672	415.88
870.98	323.96
871.288	334.17
871.595	403.11
871.903	392.9
872.211	456.74
872.518	477.16
872.826	410.77
873.134	423.54
873.441	469.5
873.749	410.77
874.056	431.2
874.363	403.11
874.671	443.97
874.978	329.07
875.285	382.69
875.592	469.5
875.9	479.72
876.207	392.9
876.514	438.86
876.821	398.01
877.128	375.03
877.435	431.2
877.741	377.58
878.048	375.03
878.355	436.31
878.662	364.81
878.968	423.54
879.275	385.24
879.582	390.35
879.888	395.45
880.195	410.77
880.501	382.69
880.807	482.27
881.114	398.01
881.42	380.13
881.726	341.83
882.032	362.26
882.339	418.43
882.645	405.67
882.951	300.98
883.257	423.54
883.563	413.33
883.869	415.88
884.174	354.6
884.48	454.18
884.786	474.61
885.092	428.65
885.397	329.07
885.703	446.52
886.009	362.26
886.314	438.86
886.62	446.52
886.925	367.37
887.231	390.35
887.536	346.94
887.841	395.45
888.146	380.13
888.452	451.63
888.757	418.43
889.062	456.74
889.367	456.74
889.672	403.11
889.977	326.51
890.282	415.88
890.587	405.67
890.892	415.88
891.196	413.33
891.501	364.81
891.806	410.77
892.11	410.77
892.415	415.88
892.72	398.01
893.024	375.03
893.328	413.33
893.633	418.43
893.937	385.24
894.242	400.56
894.546	298.43
894.85	392.9
895.154	466.95
895.458	349.49
895.762	398.01
896.066	367.37
896.37	428.65
896.674	431.2
896.978	464.4
897.282	385.24
897.586	380.13
897.89	415.88
898.193	505.25
898.497	500.14
898.801	431.2
899.104	352.05
899.408	354.6
899.711	387.79
900.014	385.24
900.318	392.9
900.621	423.54
900.924	410.77
901.228	405.67
901.531	354.6
901.834	377.58
902.137	403.11
902.44	438.86
902.743	472.06
903.046	415.88
903.349	385.24
903.652	418.43
903.955	410.77
904.257	403.11
904.56	415.88
904.863	354.6
905.165	405.67
905.468	479.72
905.77	464.4
906.073	482.27
906.375	426.09
906.678	375.03
906.98	415.88
907.282	418.43
907.584	459.29
907.887	385.24
908.189	415.88
908.491	344.39
908.793	395.45
909.095	441.42
909.397	354.6
909.699	385.24
910.001	410.77
910.302	344.39
910.604	387.79
910.906	395.45
911.208	380.13
911.509	398.01
911.811	364.81
912.112	410.77
912.414	375.03
912.715	408.22
913.017	420.99
913.318	415.88
913.619	408.22
913.92	349.49
914.222	400.56
914.523	362.26
914.824	472.06
915.125	472.06
915.426	443.97
915.727	438.86
916.028	382.69
916.329	362.26
916.63	382.69
916.93	382.69
917.231	400.56
917.532	367.37
917.832	418.43
918.133	372.47
918.434	454.18
918.734	392.9
919.034	512.91
919.335	441.42
919.635	413.33
919.935	382.69
920.236	362.26
920.536	382.69
920.836	408.22
921.136	449.08
921.436	474.61
921.736	464.4
922.036	392.9
922.336	436.31
922.636	410.77
922.936	423.54
923.236	357.15
923.535	413.33
923.835	420.99
924.135	387.79
924.434	408.22
924.734	400.56
925.033	469.5
925.333	377.58
925.632	380.13
925.932	369.92
926.231	392.9
926.53	420.99
926.83	482.27
927.129	382.69
927.428	418.43
927.727	428.65
928.026	423.54
928.325	449.08
928.624	418.43
928.923	395.45
929.222	400.56
929.52	372.47
929.819	441.42
930.118	431.2
930.417	431.2
930.715	382.69
931.014	428.65
931.312	464.4
931.611	392.9
931.909	403.11
932.207	474.61
932.506	364.81
932.804	336.73
933.102	392.9
933.401	362.26
933.699	433.76
933.997	395.45
934.295	323.96
934.593	382.69
934.891	341.83
935.189	392.9
935.487	446.52
935.784	313.75
936.082	387.79
936.38	398.01
936.677	362.26
936.975	359.71
937.273	420.99
937.57	375.03
937.868	390.35
938.165	464.4
938.463	408.22
938.76	352.05
939.057	375.03
939.354	438.86
939.652	423.54
939.949	334.17
940.246	387.79
940.543	415.88
940.84	415.88
941.137	433.76
941.434	436.31
941.731	426.09
942.028	375.03
942.324	436.31
942.621	438.86
942.918	400.56
943.214	395.45
943.511	354.6
943.807	415.88
944.104	426.09
944.4	464.4
944.697	431.2
944.993	410.77
945.29	410.77
945.586	436.31
945.882	362.26
946.178	331.62
946.474	382.69
946.77	362.26
947.066	395.45
947.362	423.54
947.658	408.22
947.954	362.26
948.25	423.54
948.546	436.31
948.842	403.11
949.137	400.56
949.433	398.01
949.729	433.76
950.024	420.99
950.32	377.58
950.615	362.26
950.91	364.81
951.206	357.15
951.501	387.79
951.796	400.56
952.092	418.43
952.387	492.48
952.682	400.56
952.977	375.03
953.272	454.18
953.567	436.31
953.862	433.76
954.157	408.22
954.452	375.03
954.747	403.11
955.041	451.63
955.336	433.76
955.631	461.84
955.925	380.13
956.22	372.47
956.514	433.76
956.809	423.54
957.103	413.33
957.398	449.08
957.692	474.61
957.986	377.58
958.281	449.08
958.575	392.9
958.869	395.45
959.163	413.33
959.457	380.13
959.751	441.42
960.045	398.01
960.339	385.24
960.633	367.37
960.927	464.4
961.221	372.47
961.514	385.24
961.808	375.03
962.102	461.84
962.395	362.26
962.689	331.62
962.982	390.35
963.276	410.77
963.569	392.9
963.862	387.79
964.156	392.9
964.449	428.65
964.742	484.82
965.035	413.33
965.328	400.56
965.622	428.65
965.915	400.56
966.208	387.79
966.5	418.43
966.793	408.22
967.086	395.45
967.379	418.43
967.672	354.6
967.964	420.99
968.257	354.6
968.55	359.71
968.842	426.09
969.135	375.03
969.427	413.33
969.72	431.2
970.012	341.83
970.304	446.52
970.597	369.92
970.889	398.01
971.181	438.86
971.473	382.69
971.765	395.45
972.057	459.29
972.349	410.77
972.641	375.03
972.933	392.9
973.225	456.74
973.517	390.35
973.809	392.9
974.1	451.63
974.392	408.22
974.684	400.56
974.975	428.65
975.267	357.15
975.558	352.05
975.85	390.35
976.141	316.3
976.432	436.31
976.724	436.31
977.015	372.47
977.306	357.15
977.597	431.2
977.888	380.13
978.179	339.28
978.47	352.05
978.761	390.35
979.052	372.47
979.343	377.58
979.634	357.15
979.925	408.22
980.215	372.47
980.506	469.5
980.797	456.74
981.087	380.13
981.378	395.45
981.668	433.76
981.959	441.42
982.249	415.88
982.54	423.54
982.83	415.88
983.12	387.79
983.41	377.58
983.701	400.56
983.991	398.01
984.281	349.49
984.571	375.03
984.861	329.07
985.151	331.62
985.441	400.56
985.73	346.94
986.02	385.24
986.31	377.58
986.6	408.22
986.889	464.4
987.179	482.27
987.469	410.77
987.758	472.06
988.048	426.09
988.337	464.4
988.626	382.69
988.916	423.54
989.205	408.22
989.494	431.2
989.783	428.65
990.073	316.3
990.362	362.26
990.651	405.67
990.94	408.22
991.229	426.09
991.518	359.71
991.806	367.37
992.095	375.03
992.384	334.17
992.673	456.74
992.961	352.05
993.25	426.09
993.539	426.09
993.827	426.09
994.116	400.56
994.404	398.01
994.692	410.77
994.981	441.42
995.269	344.39
995.557	357.15
995.846	339.28
996.134	449.08
996.422	382.69
996.71	431.2
996.998	431.2
997.286	413.33
997.574	426.09
997.862	449.08
998.15	403.11
998.437	403.11
998.725	408.22
999.013	400.56
999.3	426.09
999.588	423.54
999.876	372.47
1000.163	364.81
1000.45	408.22
1000.738	420.99
1001.025	418.43
1001.313	392.9
1001.6	431.2
1001.887	405.67
1002.174	382.69
1002.461	390.35
1002.748	438.86
1003.036	423.54
1003.322	426.09
1003.609	423.54
1003.896	326.51
1004.183	446.52
1004.47	413.33
1004.757	364.81
1005.043	362.26
1005.33	349.49
1005.617	385.24
1005.903	398.01
1006.19	380.13
1006.476	443.97
1006.763	367.37
1007.049	441.42
1007.335	420.99
1007.622	326.51
1007.908	413.33
1008.194	461.84
1008.48	413.33
1008.766	403.11
1009.053	441.42
1009.339	372.47
1009.625	418.43
1009.91	326.51
1010.196	459.29
1010.482	423.54
1010.768	413.33
1011.054	431.2
1011.339	415.88
1011.625	441.42
1011.911	423.54
1012.196	387.79
1012.482	413.33
1012.767	405.67
1013.052	433.76
1013.338	413.33
1013.623	369.92
1013.908	362.26
1014.194	349.49
1014.479	403.11
1014.764	346.94
1015.049	321.41
1015.334	423.54
1015.619	413.33
1015.904	336.73
1016.189	354.6
1016.474	357.15
1016.758	428.65
1017.043	377.58
1017.328	354.6
1017.613	415.88
1017.897	390.35
1018.182	410.77
1018.466	380.13
1018.751	410.77
1019.035	395.45
1019.32	377.58
1019.604	362.26
1019.888	346.94
1020.172	346.94
1020.457	346.94
