Data from 2025-12-03_xpw_interference_micrometer_634_FLMS141361__12__062.txt Node

Date: Wed Dec 03 15:48:37 MST 2025
User: james
Spectrometer: FLMS14136
Trigger mode: 0
Integration Time (sec): 1.000000E-1
Scans to average: 1
Electric dark correction enabled: true
Nonlinearity correction enabled: false
Boxcar width: 0
XAxis mode: Wavelengths
Number of Pixels in Spectrum: 2048
>>>>>Begin Spectral Data<<<<<
339.315	26.81
339.697	26.81
340.079	26.81
340.461	-111.07
340.843	-113.63
341.225	-52.34
341.607	-113.63
341.989	-85.54
342.371	-75.32
342.752	-90.64
343.134	-39.58
343.516	-60
343.897	-11.49
344.279	14.04
344.661	16.6
345.042	21.7
345.423	-14.04
345.805	31.92
346.186	116.18
346.567	177.46
346.949	164.69
347.33	136.61
347.711	149.37
348.092	187.67
348.473	218.31
348.854	282.15
349.235	187.67
349.616	335.77
349.997	325.56
350.378	300.02
350.758	340.88
351.139	325.56
351.52	394.5
351.9	425.14
352.281	294.92
352.661	340.88
353.042	374.07
353.422	376.62
353.803	427.69
354.183	374.07
354.563	412.37
354.943	407.26
355.324	460.88
355.704	399.6
356.084	376.62
356.464	391.94
356.844	471.1
357.224	399.6
357.603	358.75
357.983	414.92
358.363	504.29
358.743	430.24
359.122	404.71
359.502	379.18
359.882	407.26
360.261	356.2
360.641	358.75
361.02	407.26
361.399	440.46
361.779	338.32
362.158	343.43
362.537	440.46
362.916	343.43
363.296	430.24
363.675	394.5
364.054	289.81
364.433	307.68
364.812	391.94
365.19	389.39
365.569	294.92
365.948	330.66
366.327	425.14
366.705	330.66
367.084	317.9
367.463	348.54
367.841	391.94
368.22	356.2
368.598	391.94
368.977	368.96
369.355	317.9
369.733	315.34
370.111	297.47
370.49	279.59
370.868	379.18
371.246	353.64
371.624	414.92
372.002	374.07
372.38	407.26
372.758	358.75
373.136	325.56
373.513	340.88
373.891	335.77
374.269	368.96
374.646	414.92
375.024	384.28
375.402	361.3
375.779	261.72
376.157	399.6
376.534	366.41
376.911	330.66
377.289	381.73
377.666	397.05
378.043	323
378.42	297.47
378.797	361.3
379.175	376.62
379.552	384.28
379.929	366.41
380.305	414.92
380.682	463.44
381.059	312.79
381.436	412.37
381.813	374.07
382.189	356.2
382.566	325.56
382.943	386.84
383.319	402.16
383.696	391.94
384.072	409.82
384.448	374.07
384.825	374.07
385.201	325.56
385.577	330.66
385.953	440.46
386.329	376.62
386.706	371.52
387.082	353.64
387.458	402.16
387.834	425.14
388.209	404.71
388.585	351.09
388.961	437.9
389.337	351.09
389.713	366.41
390.088	397.05
390.464	320.45
390.839	302.58
391.215	391.94
391.59	394.5
391.966	394.5
392.341	407.26
392.716	376.62
393.092	366.41
393.467	325.56
393.842	437.9
394.217	414.92
394.592	328.11
394.967	328.11
395.342	414.92
395.717	353.64
396.092	407.26
396.467	409.82
396.841	379.18
397.216	391.94
397.591	294.92
397.965	425.14
398.34	430.24
398.714	389.39
399.089	391.94
399.463	353.64
399.838	345.98
400.212	338.32
400.586	404.71
400.961	371.52
401.335	361.3
401.709	379.18
402.083	420.03
402.457	381.73
402.831	325.56
403.205	376.62
403.579	399.6
403.953	312.79
404.326	376.62
404.7	333.22
405.074	333.22
405.447	353.64
405.821	386.84
406.195	363.86
406.568	504.29
406.942	448.12
407.315	397.05
407.688	404.71
408.062	345.98
408.435	391.94
408.808	358.75
409.181	445.56
409.554	340.88
409.927	394.5
410.3	361.3
410.673	450.67
411.046	407.26
411.419	356.2
411.792	391.94
412.165	412.37
412.537	450.67
412.91	445.56
413.283	460.88
413.655	371.52
414.028	340.88
414.4	409.82
414.773	427.69
415.145	389.39
415.517	371.52
415.889	427.69
416.262	420.03
416.634	343.43
417.006	374.07
417.378	391.94
417.75	328.11
418.122	496.63
418.494	437.9
418.866	422.58
419.238	361.3
419.609	394.5
419.981	351.09
420.353	435.35
420.725	315.34
421.096	407.26
421.468	453.22
421.839	422.58
422.211	315.34
422.582	420.03
422.953	414.92
423.325	483.87
423.696	381.73
424.067	440.46
424.438	368.96
424.809	376.62
425.18	443.01
425.551	432.8
425.922	343.43
426.293	389.39
426.664	394.5
427.035	453.22
427.406	448.12
427.776	443.01
428.147	399.6
428.518	366.41
428.888	340.88
429.259	363.86
429.629	386.84
429.999	435.35
430.37	399.6
430.74	402.16
431.11	376.62
431.481	343.43
431.851	402.16
432.221	486.42
432.591	463.44
432.961	455.78
433.331	422.58
433.701	391.94
434.071	432.8
434.441	381.73
434.81	335.77
435.18	376.62
435.55	407.26
435.919	345.98
436.289	412.37
436.658	440.46
437.028	348.54
437.397	363.86
437.767	420.03
438.136	448.12
438.505	374.07
438.875	445.56
439.244	432.8
439.613	323
439.982	471.1
440.351	391.94
440.72	397.05
441.089	407.26
441.458	458.33
441.827	409.82
442.196	366.41
442.564	471.1
442.933	435.35
443.302	425.14
443.67	404.71
444.039	409.82
444.407	374.07
444.776	458.33
445.144	427.69
445.513	386.84
445.881	368.96
446.249	397.05
446.617	368.96
446.986	404.71
447.354	445.56
447.722	450.67
448.09	404.71
448.458	389.39
448.826	463.44
449.194	417.48
449.561	435.35
449.929	376.62
450.297	389.39
450.665	345.98
451.032	414.92
451.4	422.58
451.767	435.35
452.135	465.99
452.502	420.03
452.87	483.87
453.237	417.48
453.604	381.73
453.971	356.2
454.339	420.03
454.706	335.77
455.073	414.92
455.44	402.16
455.807	450.67
456.174	420.03
456.541	404.71
456.908	443.01
457.274	412.37
457.641	363.86
458.008	445.56
458.374	417.48
458.741	351.09
459.108	453.22
459.474	391.94
459.841	504.29
460.207	460.88
460.573	453.22
460.94	448.12
461.306	381.73
461.672	463.44
462.038	455.78
462.404	427.69
462.771	425.14
463.137	391.94
463.503	412.37
463.868	417.48
464.234	425.14
464.6	437.9
464.966	402.16
465.332	381.73
465.697	430.24
466.063	448.12
466.429	404.71
466.794	417.48
467.16	366.41
467.525	445.56
467.89	368.96
468.256	402.16
468.621	409.82
468.986	445.56
469.351	453.22
469.717	430.24
470.082	432.8
470.447	394.5
470.812	417.48
471.177	376.62
471.542	374.07
471.906	422.58
472.271	499.19
472.636	414.92
473.001	476.2
473.365	427.69
473.73	366.41
474.094	425.14
474.459	437.9
474.823	397.05
475.188	420.03
475.552	440.46
475.917	376.62
476.281	404.71
476.645	404.71
477.009	333.22
477.373	399.6
477.737	430.24
478.101	417.48
478.465	458.33
478.829	335.77
479.193	425.14
479.557	450.67
479.921	414.92
480.284	379.18
480.648	409.82
481.012	448.12
481.375	399.6
481.739	391.94
482.102	409.82
482.466	430.24
482.829	481.31
483.193	425.14
483.556	407.26
483.919	430.24
484.282	445.56
484.645	333.22
485.009	351.09
485.372	425.14
485.735	384.28
486.098	402.16
486.46	397.05
486.823	488.97
487.186	361.3
487.549	407.26
487.912	381.73
488.274	394.5
488.637	440.46
488.999	453.22
489.362	440.46
489.724	473.65
490.087	397.05
490.449	420.03
490.811	402.16
491.174	363.86
491.536	478.76
491.898	399.6
492.26	409.82
492.622	422.58
492.984	371.52
493.346	399.6
493.708	440.46
494.07	358.75
494.432	351.09
494.794	381.73
495.155	420.03
495.517	379.18
495.879	384.28
496.24	437.9
496.602	407.26
496.963	420.03
497.325	435.35
497.686	391.94
498.048	455.78
498.409	409.82
498.77	420.03
499.131	422.58
499.492	509.4
499.854	412.37
500.215	384.28
500.576	425.14
500.937	330.66
501.298	389.39
501.658	361.3
502.019	432.8
502.38	473.65
502.741	381.73
503.101	440.46
503.462	351.09
503.823	397.05
504.183	407.26
504.543	386.84
504.904	363.86
505.264	351.09
505.625	394.5
505.985	414.92
506.345	394.5
506.705	412.37
507.065	427.69
507.426	386.84
507.786	391.94
508.146	376.62
508.505	391.94
508.865	368.96
509.225	394.5
509.585	519.61
509.945	409.82
510.304	402.16
510.664	409.82
511.024	412.37
511.383	481.31
511.743	435.35
512.102	397.05
512.462	445.56
512.821	432.8
513.18	425.14
513.539	412.37
513.899	430.24
514.258	345.98
514.617	345.98
514.976	351.09
515.335	381.73
515.694	379.18
516.053	368.96
516.412	353.64
516.771	351.09
517.129	432.8
517.488	455.78
517.847	409.82
518.205	376.62
518.564	417.48
518.922	432.8
519.281	453.22
519.639	435.35
519.998	404.71
520.356	455.78
520.714	407.26
521.073	361.3
521.431	397.05
521.789	381.73
522.147	453.22
522.505	394.5
522.863	463.44
523.221	374.07
523.579	335.77
523.937	381.73
524.295	345.98
524.652	402.16
525.01	402.16
525.368	450.67
525.725	443.01
526.083	384.28
526.44	422.58
526.798	381.73
527.155	404.71
527.513	432.8
527.87	417.48
528.227	407.26
528.584	473.65
528.942	427.69
529.299	443.01
529.656	394.5
530.013	409.82
530.37	422.58
530.727	440.46
531.083	427.69
531.44	453.22
531.797	358.75
532.154	432.8
532.511	394.5
532.867	389.39
533.224	427.69
533.58	471.1
533.937	417.48
534.293	381.73
534.65	358.75
535.006	389.39
535.362	399.6
535.718	384.28
536.075	402.16
536.431	389.39
536.787	389.39
537.143	425.14
537.499	427.69
537.855	488.97
538.211	450.67
538.567	404.71
538.923	397.05
539.278	420.03
539.634	399.6
539.99	384.28
540.345	448.12
540.701	389.39
541.056	404.71
541.412	404.71
541.767	458.33
542.123	363.86
542.478	440.46
542.833	376.62
543.188	361.3
543.544	404.71
543.899	443.01
544.254	379.18
544.609	404.71
544.964	407.26
545.319	366.41
545.674	437.9
546.029	394.5
546.383	443.01
546.738	348.54
547.093	399.6
547.447	414.92
547.802	351.09
548.157	386.84
548.511	317.9
548.866	409.82
549.22	381.73
549.574	356.2
549.929	420.03
550.283	374.07
550.637	399.6
550.991	427.69
551.345	404.71
551.699	445.56
552.053	402.16
552.407	409.82
552.761	404.71
553.115	325.56
553.469	422.58
553.823	320.45
554.176	353.64
554.53	468.54
554.884	394.5
555.237	683.03
555.591	381.73
555.944	478.76
556.298	455.78
556.651	494.08
557.005	425.14
557.358	437.9
557.711	389.39
558.064	427.69
558.417	437.9
558.771	540.04
559.124	399.6
559.477	476.2
559.83	455.78
560.182	435.35
560.535	471.1
560.888	435.35
561.241	351.09
561.594	397.05
561.946	473.65
562.299	445.56
562.651	345.98
563.004	361.3
563.356	363.86
563.709	391.94
564.061	443.01
564.413	409.82
564.766	432.8
565.118	453.22
565.47	453.22
565.822	402.16
566.174	409.82
566.526	407.26
566.878	417.48
567.23	381.73
567.582	351.09
567.934	302.58
568.286	404.71
568.638	358.75
568.989	427.69
569.341	376.62
569.693	397.05
570.044	407.26
570.396	348.54
570.747	358.75
571.098	368.96
571.45	404.71
571.801	420.03
572.152	363.86
572.504	430.24
572.855	358.75
573.206	422.58
573.557	440.46
573.908	443.01
574.259	425.14
574.61	404.71
574.961	443.01
575.311	445.56
575.662	453.22
576.013	427.69
576.364	381.73
576.714	463.44
577.065	432.8
577.415	458.33
577.766	399.6
578.116	407.26
578.467	356.2
578.817	407.26
579.167	353.64
579.518	389.39
579.868	414.92
580.218	404.71
580.568	471.1
580.918	397.05
581.268	420.03
581.618	422.58
581.968	427.69
582.318	363.86
582.668	420.03
583.017	409.82
583.367	417.48
583.717	425.14
584.066	386.84
584.416	420.03
584.765	394.5
585.115	384.28
585.464	402.16
585.814	374.07
586.163	409.82
586.512	448.12
586.862	422.58
587.211	397.05
587.56	412.37
587.909	430.24
588.258	450.67
588.607	453.22
588.956	476.2
589.305	391.94
589.654	399.6
590.002	404.71
590.351	412.37
590.7	407.26
591.048	463.44
591.397	435.35
591.746	488.97
592.094	437.9
592.443	368.96
592.791	422.58
593.139	443.01
593.488	379.18
593.836	384.28
594.184	425.14
594.532	427.69
594.88	417.48
595.228	404.71
595.576	391.94
595.924	427.69
596.272	420.03
596.62	455.78
596.968	371.52
597.316	361.3
597.664	409.82
598.011	358.75
598.359	356.2
598.706	397.05
599.054	407.26
599.402	450.67
599.749	425.14
600.096	506.85
600.444	312.79
600.791	374.07
601.138	389.39
601.485	407.26
601.833	386.84
602.18	376.62
602.527	443.01
602.874	389.39
603.221	384.28
603.568	379.18
603.914	476.2
604.261	437.9
604.608	384.28
604.955	453.22
605.301	374.07
605.648	432.8
605.995	404.71
606.341	427.69
606.688	427.69
607.034	386.84
607.38	432.8
607.727	422.58
608.073	445.56
608.419	420.03
608.765	435.35
609.112	391.94
609.458	412.37
609.804	376.62
610.15	374.07
610.496	376.62
610.842	402.16
611.187	381.73
611.533	435.35
611.879	340.88
612.225	363.86
612.57	448.12
612.916	381.73
613.261	397.05
613.607	427.69
613.952	463.44
614.298	476.2
614.643	412.37
614.989	394.5
615.334	404.71
615.679	412.37
616.024	381.73
616.369	417.48
616.714	458.33
617.059	320.45
617.404	443.01
617.749	427.69
618.094	363.86
618.439	384.28
618.784	386.84
619.129	463.44
619.473	430.24
619.818	386.84
620.163	381.73
620.507	348.54
620.852	402.16
621.196	409.82
621.54	409.82
621.885	432.8
622.229	353.64
622.573	386.84
622.918	450.67
623.262	409.82
623.606	437.9
623.95	443.01
624.294	425.14
624.638	379.18
624.982	333.22
625.326	358.75
625.67	366.41
626.013	376.62
626.357	440.46
626.701	376.62
627.044	445.56
627.388	379.18
627.731	399.6
628.075	399.6
628.418	486.42
628.762	402.16
629.105	307.68
629.448	358.75
629.792	384.28
630.135	356.2
630.478	371.52
630.821	394.5
631.164	409.82
631.507	391.94
631.85	506.85
632.193	437.9
632.536	386.84
632.879	394.5
633.221	407.26
633.564	412.37
633.907	450.67
634.249	450.67
634.592	463.44
634.935	440.46
635.277	417.48
635.619	455.78
635.962	363.86
636.304	402.16
636.646	440.46
636.989	404.71
637.331	437.9
637.673	417.48
638.015	422.58
638.357	399.6
638.699	468.54
639.041	409.82
639.383	420.03
639.725	315.34
640.067	353.64
640.408	430.24
640.75	399.6
641.092	414.92
641.433	374.07
641.775	386.84
642.116	409.82
642.458	420.03
642.799	448.12
643.141	407.26
643.482	363.86
643.823	414.92
644.164	394.5
644.506	389.39
644.847	414.92
645.188	376.62
645.529	407.26
645.87	366.41
646.211	379.18
646.552	453.22
646.893	399.6
647.233	409.82
647.574	343.43
647.915	420.03
648.255	376.62
648.596	409.82
648.937	384.28
649.277	345.98
649.618	425.14
649.958	435.35
650.298	399.6
650.639	397.05
650.979	374.07
651.319	340.88
651.659	381.73
651.999	414.92
652.339	389.39
652.679	432.8
653.019	458.33
653.359	391.94
653.699	407.26
654.039	394.5
654.379	386.84
654.719	420.03
655.058	376.62
655.398	358.75
655.737	427.69
656.077	374.07
656.416	425.14
656.756	440.46
657.095	445.56
657.435	471.1
657.774	386.84
658.113	402.16
658.452	420.03
658.792	463.44
659.131	384.28
659.47	471.1
659.809	463.44
660.148	379.18
660.487	351.09
660.826	463.44
661.164	404.71
661.503	473.65
661.842	465.99
662.181	458.33
662.519	351.09
662.858	366.41
663.196	356.2
663.535	483.87
663.873	384.28
664.212	417.48
664.55	420.03
664.888	302.58
665.226	305.13
665.565	397.05
665.903	624.3
666.241	384.28
666.579	366.41
666.917	368.96
667.255	430.24
667.593	384.28
667.931	391.94
668.268	460.88
668.606	435.35
668.944	348.54
669.282	376.62
669.619	371.52
669.957	409.82
670.294	453.22
670.632	409.82
670.969	368.96
671.307	371.52
671.644	379.18
671.981	463.44
672.318	450.67
672.656	389.39
672.993	366.41
673.33	353.64
673.667	340.88
674.004	379.18
674.341	409.82
674.678	414.92
675.015	391.94
675.351	402.16
675.688	409.82
676.025	409.82
676.362	443.01
676.698	376.62
677.035	427.69
677.371	420.03
677.708	374.07
678.044	320.45
678.38	399.6
678.717	440.46
679.053	440.46
679.389	371.52
679.725	381.73
680.062	389.39
680.398	414.92
680.734	404.71
681.07	371.52
681.406	345.98
681.742	404.71
682.077	417.48
682.413	453.22
682.749	443.01
683.085	333.22
683.42	310.24
683.756	358.75
684.091	417.48
684.427	427.69
684.762	402.16
685.098	402.16
685.433	414.92
685.768	389.39
686.104	343.43
686.439	351.09
686.774	412.37
687.109	443.01
687.444	399.6
687.779	386.84
688.114	386.84
688.449	494.08
688.784	402.16
689.119	409.82
689.454	465.99
689.789	404.71
690.123	366.41
690.458	432.8
690.792	420.03
691.127	371.52
691.461	371.52
691.796	537.49
692.13	402.16
692.465	333.22
692.799	340.88
693.133	310.24
693.467	325.56
693.802	407.26
694.136	361.3
694.47	366.41
694.804	402.16
695.138	353.64
695.472	414.92
695.806	371.52
696.139	394.5
696.473	448.12
696.807	386.84
697.141	437.9
697.474	376.62
697.808	397.05
698.141	363.86
698.475	435.35
698.808	389.39
699.142	363.86
699.475	317.9
699.808	397.05
700.142	376.62
700.475	450.67
700.808	432.8
701.141	384.28
701.474	348.54
701.807	399.6
702.14	435.35
702.473	488.97
702.806	443.01
703.139	481.31
703.472	430.24
703.804	330.66
704.137	425.14
704.47	412.37
704.802	358.75
705.135	389.39
705.467	412.37
705.8	391.94
706.132	356.2
706.464	409.82
706.797	425.14
707.129	376.62
707.461	381.73
707.793	409.82
708.125	353.64
708.457	391.94
708.789	420.03
709.121	412.37
709.453	389.39
709.785	437.9
710.117	473.65
710.449	435.35
710.781	397.05
711.112	430.24
711.444	394.5
711.775	361.3
712.107	402.16
712.438	394.5
712.77	389.39
713.101	391.94
713.433	407.26
713.764	453.22
714.095	417.48
714.426	420.03
714.757	412.37
715.089	353.64
715.42	402.16
715.751	420.03
716.082	491.53
716.412	376.62
716.743	391.94
717.074	397.05
717.405	379.18
717.736	394.5
718.066	379.18
718.397	391.94
718.727	399.6
719.058	333.22
719.388	391.94
719.719	348.54
720.049	402.16
720.38	379.18
720.71	412.37
721.04	402.16
721.37	384.28
721.7	386.84
722.031	460.88
722.361	381.73
722.691	494.08
723.021	330.66
723.35	374.07
723.68	323
724.01	402.16
724.34	417.48
724.67	386.84
724.999	376.62
725.329	437.9
725.658	402.16
725.988	425.14
726.317	445.56
726.647	409.82
726.976	348.54
727.306	458.33
727.635	381.73
727.964	381.73
728.293	399.6
728.622	374.07
728.952	363.86
729.281	391.94
729.61	417.48
729.939	435.35
730.267	453.22
730.596	397.05
730.925	437.9
731.254	348.54
731.583	412.37
731.911	361.3
732.24	425.14
732.568	430.24
732.897	425.14
733.225	453.22
733.554	361.3
733.882	391.94
734.21	353.64
734.539	412.37
734.867	310.24
735.195	391.94
735.523	427.69
735.851	345.98
736.179	386.84
736.507	351.09
736.835	361.3
737.163	379.18
737.491	409.82
737.819	399.6
738.147	412.37
738.474	422.58
738.802	414.92
739.13	363.86
739.457	374.07
739.785	340.88
740.112	366.41
740.44	417.48
740.767	402.16
741.094	386.84
741.422	345.98
741.749	440.46
742.076	409.82
742.403	427.69
742.73	435.35
743.057	374.07
743.384	404.71
743.711	323
744.038	414.92
744.365	478.76
744.692	371.52
745.018	340.88
745.345	412.37
745.672	371.52
745.998	465.99
746.325	407.26
746.651	397.05
746.978	427.69
747.304	351.09
747.631	381.73
747.957	399.6
748.283	379.18
748.61	399.6
748.936	371.52
749.262	345.98
749.588	409.82
749.914	425.14
750.24	404.71
750.566	381.73
750.892	389.39
751.218	450.67
751.543	381.73
751.869	437.9
752.195	407.26
752.521	353.64
752.846	368.96
753.172	407.26
753.497	414.92
753.823	414.92
754.148	422.58
754.473	404.71
754.799	394.5
755.124	386.84
755.449	391.94
755.774	371.52
756.1	412.37
756.425	478.76
756.75	389.39
757.075	417.48
757.4	494.08
757.724	371.52
758.049	363.86
758.374	384.28
758.699	348.54
759.024	366.41
759.348	366.41
759.673	458.33
759.997	356.2
760.322	379.18
760.646	389.39
760.971	384.28
761.295	333.22
761.619	399.6
761.944	501.74
762.268	435.35
762.592	448.12
762.916	509.4
763.24	517.06
763.564	465.99
763.888	575.79
764.212	568.13
764.536	588.55
764.86	514.51
765.184	453.22
765.508	519.61
765.831	647.28
766.155	912.83
766.478	769.84
766.802	897.51
767.126	1073.7
767.449	1265.2
767.772	1428.61
768.096	1505.22
768.419	1446.49
768.742	1451.6
769.066	1344.35
769.389	1267.75
769.712	1030.29
770.035	846.44
770.358	746.86
770.681	831.12
771.004	1037.95
771.327	1186.04
771.65	1472.02
771.972	1931.63
772.295	2419.33
772.618	2761.48
772.941	2861.06
773.263	2891.7
773.586	2815.1
773.908	2753.82
774.231	2546.99
774.553	2110.37
774.875	1727.36
775.198	1505.22
775.52	1188.6
775.842	1122.21
776.164	1449.04
776.487	1957.16
776.809	2419.33
777.131	3006.6
777.453	3484.08
777.775	3897.73
778.096	4416.07
778.418	4495.22
778.74	3915.61
779.062	3478.98
779.384	3246.62
779.705	3098.52
780.027	2483.16
780.348	2010.79
780.67	1469.47
780.991	1436.28
781.313	1709.49
781.634	2268.68
781.955	3060.22
782.277	4117.32
782.598	5176.97
782.919	6126.83
783.24	6583.89
783.561	6831.56
783.882	6946.46
784.203	6481.75
784.524	5868.94
784.845	4783.75
785.166	3535.15
785.487	2636.36
785.807	1939.29
786.128	1520.54
786.449	1459.26
786.769	1727.36
787.09	2437.2
787.41	3576.01
787.731	5102.93
788.051	6696.23
788.372	8064.84
788.692	9517.72
789.012	10541.62
789.332	10544.17
789.653	10467.57
789.973	9604.53
790.293	7738.01
790.613	5720.84
790.933	4155.62
791.253	3044.9
791.573	2148.67
791.893	1556.28
792.212	1497.56
792.532	1671.19
792.852	2467.84
793.171	3358.97
793.491	4298.61
793.811	5258.68
794.13	6070.66
794.45	6525.16
794.769	6491.96
795.088	6844.33
795.408	6359.19
795.727	5815.32
796.046	4633.1
796.365	3767.51
796.684	2820.21
797.004	2036.32
797.323	1520.54
797.642	1214.13
797.96	1405.63
798.279	1722.25
798.598	2485.71
798.917	3366.63
799.236	4112.22
799.554	4809.29
799.873	5207.61
800.192	6315.78
800.51	7061.37
800.829	6897.95
801.147	6481.75
801.466	5679.99
801.784	5008.45
802.102	4027.95
802.421	3221.09
802.739	2746.16
803.057	1987.8
803.375	1464.36
803.693	1188.6
804.011	1316.27
804.329	1533.3
804.647	2021
804.965	2623.6
805.283	3261.94
805.601	3959.01
805.918	4770.99
806.236	5148.89
806.554	5501.25
806.871	5519.13
807.189	5769.36
807.507	5644.24
807.824	5000.79
808.141	4012.63
808.459	3006.6
808.776	2207.4
809.093	1500.11
809.411	1076.25
809.728	864.32
810.045	805.59
810.362	900.07
810.679	1201.36
810.996	1678.85
811.313	2118.03
811.63	2682.32
811.947	2891.7
812.264	3047.46
812.58	3251.73
812.897	3164.91
813.214	3180.23
813.53	3177.68
813.847	3047.46
814.163	2715.52
814.48	2207.4
814.796	1898.44
815.113	1472.02
815.429	999.65
815.745	823.46
816.061	665.15
816.378	685.58
816.694	670.26
817.01	900.07
817.326	1086.46
817.642	1380.1
817.958	1650.76
818.274	1729.91
818.59	1911.2
818.905	1872.9
819.221	2156.33
819.537	2153.77
819.852	2194.63
820.168	2003.13
820.484	1852.48
820.799	1609.9
821.115	1385.21
821.43	1155.4
821.745	956.24
822.061	764.74
822.376	662.6
822.691	555.36
823.006	563.02
823.322	621.75
823.637	695.8
823.952	777.5
824.267	861.77
824.582	956.24
824.897	1180.94
825.211	1308.61
825.526	1308.61
825.841	1428.61
826.156	1382.65
826.47	1428.61
826.785	1323.93
827.1	1237.11
827.414	1017.52
827.729	963.9
828.043	782.61
828.357	698.35
828.672	542.59
828.986	524.72
829.3	427.69
829.614	468.54
829.929	519.61
830.243	532.38
830.557	667.71
830.871	634.51
831.185	649.83
831.499	792.82
831.812	843.89
832.126	882.19
832.44	986.88
832.754	1004.75
833.067	1086.46
833.381	979.22
833.695	953.69
834.008	892.41
834.322	851.55
834.635	785.16
834.948	690.69
835.262	580.89
835.575	483.87
835.888	499.19
836.201	455.78
836.515	437.9
836.828	414.92
837.141	417.48
837.454	414.92
837.767	437.9
838.08	496.63
838.392	550.25
838.705	547.7
839.018	621.75
839.331	614.09
839.643	601.32
839.956	573.23
840.269	575.79
840.581	573.23
840.894	522.17
841.206	496.63
841.519	639.62
841.831	550.25
842.143	517.06
842.455	486.42
842.768	524.72
843.08	443.01
843.392	435.35
843.704	412.37
844.016	443.01
844.328	524.72
844.64	473.65
844.952	412.37
845.263	432.8
845.575	402.16
845.887	463.44
846.199	509.4
846.51	545.15
846.822	468.54
847.133	504.29
847.445	437.9
847.756	440.46
848.068	458.33
848.379	445.56
848.69	407.26
849.002	379.18
849.313	471.1
849.624	323
849.935	356.2
850.246	389.39
850.557	379.18
850.868	420.03
851.179	376.62
851.49	368.96
851.801	430.24
852.112	399.6
852.422	399.6
852.733	409.82
853.044	363.86
853.354	389.39
853.665	343.43
853.975	414.92
854.286	374.07
854.596	376.62
854.906	353.64
855.217	402.16
855.527	417.48
855.837	356.2
856.147	353.64
856.458	361.3
856.768	386.84
857.078	430.24
857.388	353.64
857.698	397.05
858.007	345.98
858.317	399.6
858.627	389.39
858.937	366.41
859.246	389.39
859.556	358.75
859.866	435.35
860.175	389.39
860.485	425.14
860.794	348.54
861.104	425.14
861.413	391.94
861.722	379.18
862.032	397.05
862.341	379.18
862.65	361.3
862.959	397.05
863.268	353.64
863.577	358.75
863.886	353.64
864.195	386.84
864.504	338.32
864.813	386.84
865.122	425.14
865.43	427.69
865.739	379.18
866.048	389.39
866.356	379.18
866.665	391.94
866.973	368.96
867.282	374.07
867.59	476.2
867.899	384.28
868.207	325.56
868.515	368.96
868.823	381.73
869.132	340.88
869.44	330.66
869.748	368.96
870.056	363.86
870.364	361.3
870.672	300.02
870.98	371.52
871.288	379.18
871.595	443.01
871.903	412.37
872.211	478.76
872.518	468.54
872.826	425.14
873.134	376.62
873.441	402.16
873.749	389.39
874.056	425.14
874.363	407.26
874.671	425.14
874.978	361.3
875.285	374.07
875.592	376.62
875.9	363.86
876.207	340.88
876.514	422.58
876.821	397.05
877.128	287.26
877.435	443.01
877.741	397.05
878.048	463.44
878.355	450.67
878.662	420.03
878.968	366.41
879.275	455.78
879.582	437.9
879.888	430.24
880.195	445.56
880.501	384.28
880.807	402.16
881.114	353.64
881.42	312.79
881.726	376.62
882.032	361.3
882.339	381.73
882.645	376.62
882.951	407.26
883.257	374.07
883.563	361.3
883.869	391.94
884.174	389.39
884.48	348.54
884.786	422.58
885.092	371.52
885.397	376.62
885.703	476.2
886.009	333.22
886.314	417.48
886.62	448.12
886.925	450.67
887.231	391.94
887.536	453.22
887.841	389.39
888.146	358.75
888.452	414.92
888.757	437.9
889.062	407.26
889.367	358.75
889.672	353.64
889.977	397.05
890.282	404.71
890.587	404.71
890.892	353.64
891.196	351.09
891.501	368.96
891.806	391.94
892.11	397.05
892.415	427.69
892.72	417.48
893.024	471.1
893.328	463.44
893.633	414.92
893.937	343.43
894.242	414.92
894.546	399.6
894.85	412.37
895.154	448.12
895.458	468.54
895.762	448.12
896.066	312.79
896.37	371.52
896.674	348.54
896.978	312.79
897.282	430.24
897.586	443.01
897.89	366.41
898.193	384.28
898.497	427.69
898.801	394.5
899.104	417.48
899.408	445.56
899.711	417.48
900.014	384.28
900.318	391.94
900.621	394.5
900.924	366.41
901.228	404.71
901.531	407.26
901.834	432.8
902.137	407.26
902.44	394.5
902.743	422.58
903.046	465.99
903.349	437.9
903.652	389.39
903.955	371.52
904.257	391.94
904.56	391.94
904.863	374.07
905.165	374.07
905.468	381.73
905.77	402.16
906.073	381.73
906.375	351.09
906.678	422.58
906.98	427.69
907.282	412.37
907.584	391.94
907.887	427.69
908.189	381.73
908.491	404.71
908.793	330.66
909.095	381.73
909.397	420.03
909.699	351.09
910.001	412.37
910.302	402.16
910.604	345.98
910.906	384.28
911.208	453.22
911.509	427.69
911.811	437.9
912.112	420.03
912.414	284.7
912.715	366.41
913.017	358.75
913.318	328.11
913.619	404.71
913.92	409.82
914.222	368.96
914.523	399.6
914.824	399.6
915.125	386.84
915.426	404.71
915.727	358.75
916.028	435.35
916.329	379.18
916.63	440.46
916.93	391.94
917.231	414.92
917.532	407.26
917.832	368.96
918.133	420.03
918.434	402.16
918.734	381.73
919.034	348.54
919.335	420.03
919.635	399.6
919.935	335.77
920.236	453.22
920.536	440.46
920.836	460.88
921.136	404.71
921.436	471.1
921.736	366.41
922.036	343.43
922.336	307.68
922.636	361.3
922.936	333.22
923.236	358.75
923.535	356.2
923.835	425.14
924.135	437.9
924.434	391.94
924.734	404.71
925.033	414.92
925.333	351.09
925.632	379.18
925.932	391.94
926.231	412.37
926.53	458.33
926.83	391.94
927.129	420.03
927.428	376.62
927.727	417.48
928.026	379.18
928.325	407.26
928.624	450.67
928.923	409.82
929.222	404.71
929.52	420.03
929.819	430.24
930.118	445.56
930.417	409.82
930.715	345.98
931.014	353.64
931.312	471.1
931.611	391.94
931.909	368.96
932.207	404.71
932.506	427.69
932.804	430.24
933.102	417.48
933.401	389.39
933.699	443.01
933.997	389.39
934.295	353.64
934.593	430.24
934.891	379.18
935.189	437.9
935.487	348.54
935.784	351.09
936.082	420.03
936.38	409.82
936.677	399.6
936.975	409.82
937.273	356.2
937.57	440.46
937.868	409.82
938.165	323
938.463	363.86
938.76	374.07
939.057	333.22
939.354	399.6
939.652	289.81
939.949	417.48
940.246	402.16
940.543	437.9
940.84	384.28
941.137	391.94
941.434	379.18
941.731	330.66
942.028	368.96
942.324	391.94
942.621	386.84
942.918	358.75
943.214	371.52
943.511	368.96
943.807	366.41
944.104	409.82
944.4	368.96
944.697	422.58
944.993	394.5
945.29	384.28
945.586	399.6
945.882	435.35
946.178	427.69
946.474	422.58
946.77	412.37
947.066	384.28
947.362	422.58
947.658	338.32
947.954	458.33
948.25	407.26
948.546	402.16
948.842	310.24
949.137	363.86
949.433	399.6
949.729	399.6
950.024	356.2
950.32	386.84
950.615	412.37
950.91	338.32
951.206	425.14
951.501	404.71
951.796	404.71
952.092	402.16
952.387	358.75
952.682	412.37
952.977	361.3
953.272	284.7
953.567	432.8
953.862	358.75
954.157	371.52
954.452	391.94
954.747	414.92
955.041	412.37
955.336	394.5
955.631	412.37
955.925	320.45
956.22	391.94
956.514	371.52
956.809	417.48
957.103	381.73
957.398	407.26
957.692	473.65
957.986	407.26
958.281	404.71
958.575	397.05
958.869	374.07
959.163	417.48
959.457	460.88
959.751	356.2
960.045	317.9
960.339	432.8
960.633	384.28
960.927	389.39
961.221	374.07
961.514	338.32
961.808	356.2
962.102	356.2
962.395	368.96
962.689	386.84
962.982	379.18
963.276	353.64
963.569	409.82
963.862	363.86
964.156	363.86
964.449	353.64
964.742	351.09
965.035	414.92
965.328	371.52
965.622	402.16
965.915	448.12
966.208	412.37
966.5	417.48
966.793	340.88
967.086	412.37
967.379	420.03
967.672	417.48
967.964	394.5
968.257	458.33
968.55	371.52
968.842	450.67
969.135	389.39
969.427	356.2
969.72	374.07
970.012	345.98
970.304	414.92
970.597	368.96
970.889	384.28
971.181	366.41
971.473	358.75
971.765	376.62
972.057	420.03
972.349	361.3
972.641	368.96
972.933	404.71
973.225	374.07
973.517	389.39
973.809	386.84
974.1	445.56
974.392	315.34
974.684	345.98
974.975	343.43
975.267	445.56
975.558	376.62
975.85	323
976.141	312.79
976.432	335.77
976.724	361.3
977.015	374.07
977.306	381.73
977.597	391.94
977.888	348.54
978.179	402.16
978.47	417.48
978.761	381.73
979.052	386.84
979.343	435.35
979.634	356.2
979.925	368.96
980.215	381.73
980.506	358.75
980.797	366.41
981.087	389.39
981.378	440.46
981.668	310.24
981.959	409.82
982.249	338.32
982.54	379.18
982.83	420.03
983.12	468.54
983.41	409.82
983.701	414.92
983.991	358.75
984.281	374.07
984.571	338.32
984.861	363.86
985.151	351.09
985.441	333.22
985.73	381.73
986.02	312.79
986.31	407.26
986.6	427.69
986.889	417.48
987.179	366.41
987.469	381.73
987.758	450.67
988.048	394.5
988.337	338.32
988.626	368.96
988.916	371.52
989.205	450.67
989.494	407.26
989.783	399.6
990.073	363.86
990.362	335.77
990.651	384.28
990.94	394.5
991.229	333.22
991.518	386.84
991.806	414.92
992.095	325.56
992.384	407.26
992.673	361.3
992.961	374.07
993.25	422.58
993.539	348.54
993.827	374.07
994.116	356.2
994.404	402.16
994.692	320.45
994.981	379.18
995.269	356.2
995.557	348.54
995.846	376.62
996.134	412.37
996.422	323
996.71	368.96
996.998	414.92
997.286	389.39
997.574	391.94
997.862	453.22
998.15	420.03
998.437	361.3
998.725	430.24
999.013	468.54
999.3	402.16
999.588	476.2
999.876	391.94
1000.163	389.39
1000.45	404.71
1000.738	340.88
1001.025	376.62
1001.313	478.76
1001.6	353.64
1001.887	391.94
1002.174	407.26
1002.461	384.28
1002.748	323
1003.036	356.2
1003.322	305.13
1003.609	414.92
1003.896	371.52
1004.183	427.69
1004.47	358.75
1004.757	409.82
1005.043	391.94
1005.33	397.05
1005.617	338.32
1005.903	414.92
1006.19	333.22
1006.476	340.88
1006.763	399.6
1007.049	430.24
1007.335	397.05
1007.622	391.94
1007.908	397.05
1008.194	363.86
1008.48	379.18
1008.766	368.96
1009.053	386.84
1009.339	471.1
1009.625	381.73
1009.91	409.82
1010.196	363.86
1010.482	409.82
1010.768	384.28
1011.054	422.58
1011.339	425.14
1011.625	397.05
1011.911	430.24
1012.196	427.69
1012.482	463.44
1012.767	351.09
1013.052	353.64
1013.338	374.07
1013.623	374.07
1013.908	330.66
1014.194	397.05
1014.479	422.58
1014.764	340.88
1015.049	397.05
1015.334	402.16
1015.619	328.11
1015.904	453.22
1016.189	386.84
1016.474	374.07
1016.758	381.73
1017.043	343.43
1017.328	315.34
1017.613	323
1017.897	361.3
1018.182	371.52
1018.466	371.52
1018.751	374.07
1019.035	381.73
1019.32	361.3
1019.604	417.48
1019.888	366.41
1020.172	366.41
1020.457	366.41
