Data from 2025-12-03_xpw_interference_micrometer_634_FLMS141361__48__098.txt Node

Date: Wed Dec 03 15:48:41 MST 2025
User: james
Spectrometer: FLMS14136
Trigger mode: 0
Integration Time (sec): 1.000000E-1
Scans to average: 1
Electric dark correction enabled: true
Nonlinearity correction enabled: false
Boxcar width: 0
XAxis mode: Wavelengths
Number of Pixels in Spectrum: 2048
>>>>>Begin Spectral Data<<<<<
339.315	-24.9
339.697	-24.9
340.079	-24.9
340.461	-119.37
340.843	-73.41
341.225	-132.14
341.607	-134.69
341.989	-109.16
342.371	-73.41
342.752	-55.54
343.134	-58.09
343.516	-14.68
343.897	-68.3
344.279	-4.47
344.661	77.24
345.042	44.05
345.423	51.71
345.805	146.18
346.186	77.24
346.567	153.84
346.949	100.22
347.33	141.07
347.711	151.29
348.092	174.27
348.473	217.68
348.854	210.02
349.235	220.23
349.616	286.62
349.997	243.21
350.378	365.77
350.758	291.72
351.139	255.98
351.52	340.24
351.9	347.9
352.281	363.22
352.661	353
353.042	360.66
353.422	360.66
353.803	386.2
354.183	414.29
354.563	373.43
354.943	350.45
355.324	406.63
355.704	378.54
356.084	383.65
356.464	322.36
356.844	335.13
357.224	429.61
357.603	396.41
357.983	409.18
358.363	439.82
358.743	398.97
359.122	396.41
359.502	424.5
359.882	365.77
360.261	375.98
360.641	406.63
361.02	353
361.399	296.83
361.779	404.07
362.158	337.68
362.537	363.22
362.916	312.15
363.296	233
363.675	337.68
364.054	294.28
364.433	342.79
364.812	327.47
365.19	332.58
365.569	324.92
365.948	327.47
366.327	271.3
366.705	299.38
367.084	322.36
367.463	342.79
367.841	345.34
368.22	373.43
368.598	330.02
368.977	276.4
369.355	378.54
369.733	342.79
370.111	388.75
370.49	294.28
370.868	324.92
371.246	330.02
371.624	353
372.002	355.56
372.38	307.04
372.758	388.75
373.136	299.38
373.513	327.47
373.891	296.83
374.269	381.09
374.646	370.88
375.024	304.49
375.402	365.77
375.779	370.88
376.157	396.41
376.534	360.66
376.911	373.43
377.289	322.36
377.666	324.92
378.043	353
378.42	319.81
378.797	363.22
379.175	327.47
379.552	358.11
379.929	307.04
380.305	340.24
380.682	378.54
381.059	345.34
381.436	406.63
381.813	411.73
382.189	370.88
382.566	350.45
382.943	409.18
383.319	353
383.696	386.2
384.072	360.66
384.448	340.24
384.825	386.2
385.201	393.86
385.577	327.47
385.953	314.7
386.329	299.38
386.706	322.36
387.082	398.97
387.458	375.98
387.834	368.32
388.209	355.56
388.585	337.68
388.961	360.66
389.337	322.36
389.713	375.98
390.088	368.32
390.464	345.34
390.839	335.13
391.215	398.97
391.59	373.43
391.966	386.2
392.341	398.97
392.716	322.36
393.092	381.09
393.467	353
393.842	347.9
394.217	401.52
394.592	342.79
394.967	345.34
395.342	322.36
395.717	406.63
396.092	345.34
396.467	373.43
396.841	332.58
397.216	358.11
397.591	398.97
397.965	393.86
398.34	388.75
398.714	398.97
399.089	360.66
399.463	350.45
399.838	450.03
400.212	401.52
400.586	411.73
400.961	401.52
401.335	314.7
401.709	386.2
402.083	324.92
402.457	370.88
402.831	360.66
403.205	414.29
403.579	342.79
403.953	378.54
404.326	360.66
404.7	360.66
405.074	368.32
405.447	353
405.821	345.34
406.195	381.09
406.568	381.09
406.942	391.31
407.315	332.58
407.688	358.11
408.062	299.38
408.435	340.24
408.808	391.31
409.181	429.61
409.554	416.84
409.927	335.13
410.3	416.84
410.673	386.2
411.046	324.92
411.419	327.47
411.792	383.65
412.165	398.97
412.537	342.79
412.91	393.86
413.283	370.88
413.655	373.43
414.028	365.77
414.4	398.97
414.773	393.86
415.145	365.77
415.517	475.57
415.889	358.11
416.262	391.31
416.634	404.07
417.006	368.32
417.378	378.54
417.75	345.34
418.122	427.05
418.494	353
418.866	340.24
419.238	381.09
419.609	383.65
419.981	388.75
420.353	404.07
420.725	314.7
421.096	401.52
421.468	409.18
421.839	401.52
422.211	347.9
422.582	419.39
422.953	381.09
423.325	462.8
423.696	427.05
424.067	375.98
424.438	416.84
424.809	381.09
425.18	432.16
425.551	358.11
425.922	388.75
426.293	373.43
426.664	365.77
427.035	416.84
427.406	406.63
427.776	381.09
428.147	409.18
428.518	312.15
428.888	388.75
429.259	398.97
429.629	396.41
429.999	447.48
430.37	429.61
430.74	381.09
431.11	350.45
431.481	368.32
431.851	353
432.221	355.56
432.591	375.98
432.961	355.56
433.331	437.27
433.701	373.43
434.071	398.97
434.441	404.07
434.81	393.86
435.18	383.65
435.55	378.54
435.919	375.98
436.289	434.71
436.658	419.39
437.028	398.97
437.397	442.37
437.767	347.9
438.136	373.43
438.505	401.52
438.875	365.77
439.244	447.48
439.613	401.52
439.982	444.93
440.351	304.49
440.72	342.79
441.089	307.04
441.458	411.73
441.827	429.61
442.196	424.5
442.564	480.67
442.933	391.31
443.302	345.34
443.67	345.34
444.039	368.32
444.407	319.81
444.776	401.52
445.144	414.29
445.513	414.29
445.881	442.37
446.249	447.48
446.617	370.88
446.986	383.65
447.354	409.18
447.722	360.66
448.09	368.32
448.458	401.52
448.826	444.93
449.194	427.05
449.561	467.91
449.929	467.91
450.297	386.2
450.665	358.11
451.032	419.39
451.4	409.18
451.767	353
452.135	347.9
452.502	386.2
452.87	314.7
453.237	375.98
453.604	363.22
453.971	421.95
454.339	368.32
454.706	373.43
455.073	393.86
455.44	393.86
455.807	381.09
456.174	375.98
456.541	368.32
456.908	383.65
457.274	434.71
457.641	396.41
458.008	378.54
458.374	401.52
458.741	444.93
459.108	393.86
459.474	363.22
459.841	427.05
460.207	411.73
460.573	393.86
460.94	409.18
461.306	353
461.672	398.97
462.038	406.63
462.404	373.43
462.771	391.31
463.137	393.86
463.503	437.27
463.868	404.07
464.234	450.03
464.6	467.91
464.966	353
465.332	439.82
465.697	383.65
466.063	396.41
466.429	393.86
466.794	358.11
467.16	365.77
467.525	363.22
467.89	398.97
468.256	424.5
468.621	483.23
468.986	373.43
469.351	383.65
469.717	396.41
470.082	424.5
470.447	340.24
470.812	409.18
471.177	317.26
471.542	429.61
471.906	465.35
472.271	427.05
472.636	432.16
473.001	350.45
473.365	360.66
473.73	398.97
474.094	429.61
474.459	386.2
474.823	375.98
475.188	391.31
475.552	381.09
475.917	381.09
476.281	429.61
476.645	332.58
477.009	406.63
477.373	401.52
477.737	396.41
478.101	452.59
478.465	444.93
478.829	393.86
479.193	416.84
479.557	368.32
479.921	437.27
480.284	393.86
480.648	337.68
481.012	393.86
481.375	457.69
481.739	419.39
482.102	388.75
482.466	406.63
482.829	434.71
483.193	398.97
483.556	375.98
483.919	386.2
484.282	490.89
484.645	373.43
485.009	314.7
485.372	439.82
485.735	368.32
486.098	365.77
486.46	455.14
486.823	378.54
487.186	396.41
487.549	386.2
487.912	409.18
488.274	388.75
488.637	381.09
488.999	378.54
489.362	368.32
489.724	381.09
490.087	416.84
490.449	421.95
490.811	427.05
491.174	421.95
491.536	432.16
491.898	337.68
492.26	360.66
492.622	429.61
492.984	381.09
493.346	381.09
493.708	427.05
494.07	391.31
494.432	375.98
494.794	391.31
495.155	421.95
495.517	439.82
495.879	493.44
496.24	404.07
496.602	427.05
496.963	401.52
497.325	442.37
497.686	381.09
498.048	424.5
498.409	460.25
498.77	427.05
499.131	406.63
499.492	381.09
499.854	404.07
500.215	381.09
500.576	419.39
500.937	378.54
501.298	442.37
501.658	383.65
502.019	432.16
502.38	406.63
502.741	365.77
503.101	381.09
503.462	383.65
503.823	350.45
504.183	414.29
504.543	434.71
504.904	442.37
505.264	414.29
505.625	478.12
505.985	404.07
506.345	460.25
506.705	375.98
507.065	358.11
507.426	378.54
507.786	378.54
508.146	375.98
508.505	337.68
508.865	365.77
509.225	432.16
509.585	467.91
509.945	388.75
510.304	416.84
510.664	409.18
511.024	401.52
511.383	429.61
511.743	386.2
512.102	424.5
512.462	411.73
512.821	432.16
513.18	350.45
513.539	388.75
513.899	393.86
514.258	406.63
514.617	370.88
514.976	437.27
515.335	411.73
515.694	393.86
516.053	383.65
516.412	370.88
516.771	404.07
517.129	396.41
517.488	363.22
517.847	353
518.205	406.63
518.564	414.29
518.922	409.18
519.281	363.22
519.639	332.58
519.998	363.22
520.356	358.11
520.714	355.56
521.073	455.14
521.431	429.61
521.789	383.65
522.147	447.48
522.505	409.18
522.863	388.75
523.221	406.63
523.579	373.43
523.937	450.03
524.295	360.66
524.652	421.95
525.01	419.39
525.368	383.65
525.725	442.37
526.083	370.88
526.44	381.09
526.798	427.05
527.155	419.39
527.513	473.01
527.87	406.63
528.227	386.2
528.584	439.82
528.942	432.16
529.299	370.88
529.656	358.11
530.013	347.9
530.37	411.73
530.727	437.27
531.083	421.95
531.44	457.69
531.797	462.8
532.154	386.2
532.511	414.29
532.867	340.24
533.224	322.36
533.58	360.66
533.937	378.54
534.293	424.5
534.65	416.84
535.006	501.1
535.362	473.01
535.718	360.66
536.075	444.93
536.431	419.39
536.787	427.05
537.143	406.63
537.499	360.66
537.855	450.03
538.211	360.66
538.567	434.71
538.923	409.18
539.278	396.41
539.634	437.27
539.99	427.05
540.345	378.54
540.701	401.52
541.056	450.03
541.412	414.29
541.767	398.97
542.123	340.24
542.478	304.49
542.833	401.52
543.188	414.29
543.544	416.84
543.899	467.91
544.254	388.75
544.609	396.41
544.964	368.32
545.319	398.97
545.674	434.71
546.029	386.2
546.383	393.86
546.738	370.88
547.093	406.63
547.447	490.89
547.802	434.71
548.157	353
548.511	406.63
548.866	373.43
549.22	375.98
549.574	398.97
549.929	398.97
550.283	378.54
550.637	388.75
550.991	414.29
551.345	360.66
551.699	386.2
552.053	365.77
552.407	370.88
552.761	373.43
553.115	391.31
553.469	480.67
553.823	465.35
554.176	375.98
554.53	424.5
554.884	370.88
555.237	610.9
555.591	434.71
555.944	409.18
556.298	393.86
556.651	381.09
557.005	398.97
557.358	353
557.711	406.63
558.064	455.14
558.417	411.73
558.771	467.91
559.124	419.39
559.477	393.86
559.83	419.39
560.182	350.45
560.535	470.46
560.888	447.48
561.241	460.25
561.594	432.16
561.946	406.63
562.299	406.63
562.651	393.86
563.004	411.73
563.356	421.95
563.709	470.46
564.061	398.97
564.413	393.86
564.766	401.52
565.118	513.87
565.47	427.05
565.822	406.63
566.174	414.29
566.526	350.45
566.878	427.05
567.23	404.07
567.582	332.58
567.934	490.89
568.286	488.33
568.638	424.5
568.989	409.18
569.341	419.39
569.693	452.59
570.044	424.5
570.396	434.71
570.747	396.41
571.098	375.98
571.45	386.2
571.801	429.61
572.152	383.65
572.504	439.82
572.855	450.03
573.206	429.61
573.557	396.41
573.908	383.65
574.259	427.05
574.61	360.66
574.961	340.24
575.311	455.14
575.662	373.43
576.013	398.97
576.364	432.16
576.714	421.95
577.065	383.65
577.415	404.07
577.766	335.13
578.116	416.84
578.467	375.98
578.817	347.9
579.167	398.97
579.518	414.29
579.868	450.03
580.218	424.5
580.568	391.31
580.918	355.56
581.268	414.29
581.618	365.77
581.968	393.86
582.318	416.84
582.668	414.29
583.017	409.18
583.367	444.93
583.717	398.97
584.066	424.5
584.416	383.65
584.765	416.84
585.115	424.5
585.464	416.84
585.814	327.47
586.163	388.75
586.512	353
586.862	444.93
587.211	398.97
587.56	411.73
587.909	437.27
588.258	393.86
588.607	383.65
588.956	370.88
589.305	457.69
589.654	398.97
590.002	450.03
590.351	419.39
590.7	406.63
591.048	388.75
591.397	365.77
591.746	416.84
592.094	391.31
592.443	404.07
592.791	391.31
593.139	419.39
593.488	383.65
593.836	406.63
594.184	398.97
594.532	427.05
594.88	483.23
595.228	383.65
595.576	419.39
595.924	406.63
596.272	363.22
596.62	488.33
596.968	337.68
597.316	416.84
597.664	409.18
598.011	332.58
598.359	383.65
598.706	452.59
599.054	373.43
599.402	381.09
599.749	388.75
600.096	347.9
600.444	355.56
600.791	470.46
601.138	381.09
601.485	314.7
601.833	370.88
602.18	347.9
602.527	396.41
602.874	365.77
603.221	444.93
603.568	416.84
603.914	432.16
604.261	373.43
604.608	404.07
604.955	327.47
605.301	424.5
605.648	386.2
605.995	409.18
606.341	378.54
606.688	370.88
607.034	383.65
607.38	398.97
607.727	416.84
608.073	406.63
608.419	411.73
608.765	398.97
609.112	432.16
609.458	398.97
609.804	460.25
610.15	401.52
610.496	416.84
610.842	416.84
611.187	391.31
611.533	427.05
611.879	401.52
612.225	398.97
612.57	398.97
612.916	421.95
613.261	368.32
613.607	330.02
613.952	427.05
614.298	365.77
614.643	335.13
614.989	411.73
615.334	365.77
615.679	368.32
616.024	398.97
616.369	373.43
616.714	375.98
617.059	307.04
617.404	381.09
617.749	452.59
618.094	363.22
618.439	383.65
618.784	421.95
619.129	411.73
619.473	375.98
619.818	378.54
620.163	383.65
620.507	411.73
620.852	411.73
621.196	388.75
621.54	386.2
621.885	404.07
622.229	386.2
622.573	396.41
622.918	381.09
623.262	393.86
623.606	368.32
623.95	337.68
624.294	414.29
624.638	370.88
624.982	393.86
625.326	396.41
625.67	345.34
626.013	404.07
626.357	330.02
626.701	414.29
627.044	368.32
627.388	419.39
627.731	363.22
628.075	457.69
628.418	388.75
628.762	386.2
629.105	416.84
629.448	393.86
629.792	353
630.135	381.09
630.478	383.65
630.821	358.11
631.164	383.65
631.507	327.47
631.85	381.09
632.193	398.97
632.536	406.63
632.879	347.9
633.221	427.05
633.564	391.31
633.907	375.98
634.249	378.54
634.592	406.63
634.935	419.39
635.277	360.66
635.619	414.29
635.962	452.59
636.304	429.61
636.646	411.73
636.989	335.13
637.331	368.32
637.673	447.48
638.015	391.31
638.357	457.69
638.699	414.29
639.041	396.41
639.383	378.54
639.725	335.13
640.067	342.79
640.408	398.97
640.75	404.07
641.092	324.92
641.433	332.58
641.775	434.71
642.116	457.69
642.458	455.14
642.799	409.18
643.141	409.18
643.482	368.32
643.823	347.9
644.164	383.65
644.506	437.27
644.847	381.09
645.188	386.2
645.529	457.69
645.87	414.29
646.211	358.11
646.552	427.05
646.893	393.86
647.233	358.11
647.574	398.97
647.915	401.52
648.255	358.11
648.596	347.9
648.937	345.34
649.277	370.88
649.618	340.24
649.958	411.73
650.298	396.41
650.639	455.14
650.979	375.98
651.319	381.09
651.659	355.56
651.999	363.22
652.339	388.75
652.679	378.54
653.019	401.52
653.359	404.07
653.699	332.58
654.039	350.45
654.379	381.09
654.719	360.66
655.058	393.86
655.398	342.79
655.737	483.23
656.077	360.66
656.416	365.77
656.756	398.97
657.095	378.54
657.435	427.05
657.774	375.98
658.113	363.22
658.452	355.56
658.792	406.63
659.131	388.75
659.47	378.54
659.809	398.97
660.148	414.29
660.487	383.65
660.826	365.77
661.164	355.56
661.503	350.45
661.842	434.71
662.181	383.65
662.519	455.14
662.858	434.71
663.196	370.88
663.535	383.65
663.873	347.9
664.212	409.18
664.55	368.32
664.888	401.52
665.226	495.99
665.565	345.34
665.903	503.65
666.241	432.16
666.579	437.27
666.917	404.07
667.255	363.22
667.593	375.98
667.931	345.34
668.268	363.22
668.606	368.32
668.944	434.71
669.282	358.11
669.619	368.32
669.957	363.22
670.294	319.81
670.632	455.14
670.969	452.59
671.307	365.77
671.644	368.32
671.981	406.63
672.318	327.47
672.656	324.92
672.993	404.07
673.33	421.95
673.667	322.36
674.004	381.09
674.341	424.5
674.678	312.15
675.015	370.88
675.351	419.39
675.688	411.73
676.025	465.35
676.362	388.75
676.698	406.63
677.035	360.66
677.371	350.45
677.708	286.62
678.044	365.77
678.38	393.86
678.717	345.34
679.053	427.05
679.389	396.41
679.725	322.36
680.062	475.57
680.398	419.39
680.734	429.61
681.07	378.54
681.406	383.65
681.742	373.43
682.077	350.45
682.413	319.81
682.749	427.05
683.085	322.36
683.42	363.22
683.756	442.37
684.091	437.27
684.427	363.22
684.762	388.75
685.098	373.43
685.433	447.48
685.768	383.65
686.104	404.07
686.439	411.73
686.774	368.32
687.109	378.54
687.444	378.54
687.779	424.5
688.114	396.41
688.449	386.2
688.784	427.05
689.119	427.05
689.454	460.25
689.789	393.86
690.123	388.75
690.458	342.79
690.792	312.15
691.127	355.56
691.461	398.97
691.796	442.37
692.13	470.46
692.465	409.18
692.799	378.54
693.133	386.2
693.467	391.31
693.802	375.98
694.136	437.27
694.47	416.84
694.804	347.9
695.138	375.98
695.472	363.22
695.806	383.65
696.139	398.97
696.473	340.24
696.807	444.93
697.141	378.54
697.474	383.65
697.808	365.77
698.141	421.95
698.475	393.86
698.808	416.84
699.142	383.65
699.475	404.07
699.808	411.73
700.142	378.54
700.475	434.71
700.808	368.32
701.141	393.86
701.474	391.31
701.807	365.77
702.14	404.07
702.473	350.45
702.806	378.54
703.139	355.56
703.472	373.43
703.804	342.79
704.137	350.45
704.47	401.52
704.802	353
705.135	409.18
705.467	460.25
705.8	370.88
706.132	350.45
706.464	342.79
706.797	381.09
707.129	345.34
707.461	375.98
707.793	360.66
708.125	368.32
708.457	375.98
708.789	301.94
709.121	424.5
709.453	381.09
709.785	391.31
710.117	393.86
710.449	378.54
710.781	424.5
711.112	427.05
711.444	396.41
711.775	404.07
712.107	360.66
712.438	358.11
712.77	347.9
713.101	434.71
713.433	419.39
713.764	416.84
714.095	330.02
714.426	304.49
714.757	358.11
715.089	350.45
715.42	434.71
715.751	391.31
716.082	404.07
716.412	406.63
716.743	375.98
717.074	373.43
717.405	340.24
717.736	368.32
718.066	393.86
718.397	368.32
718.727	404.07
719.058	319.81
719.388	365.77
719.719	475.57
720.049	375.98
720.38	393.86
720.71	370.88
721.04	383.65
721.37	424.5
721.7	414.29
722.031	393.86
722.361	401.52
722.691	429.61
723.021	388.75
723.35	373.43
723.68	347.9
724.01	437.27
724.34	421.95
724.67	335.13
724.999	393.86
725.329	370.88
725.658	419.39
725.988	396.41
726.317	393.86
726.647	353
726.976	401.52
727.306	386.2
727.635	388.75
727.964	393.86
728.293	388.75
728.622	381.09
728.952	322.36
729.281	391.31
729.61	322.36
729.939	386.2
730.267	355.56
730.596	393.86
730.925	401.52
731.254	373.43
731.583	373.43
731.911	444.93
732.24	347.9
732.568	360.66
732.897	363.22
733.225	296.83
733.554	404.07
733.882	345.34
734.21	396.41
734.539	337.68
734.867	375.98
735.195	322.36
735.523	434.71
735.851	368.32
736.179	299.38
736.507	347.9
736.835	353
737.163	337.68
737.491	406.63
737.819	381.09
738.147	396.41
738.474	388.75
738.802	401.52
739.13	434.71
739.457	427.05
739.785	393.86
740.112	401.52
740.44	452.59
740.767	414.29
741.094	398.97
741.422	363.22
741.749	437.27
742.076	391.31
742.403	429.61
742.73	406.63
743.057	363.22
743.384	301.94
743.711	396.41
744.038	365.77
744.365	419.39
744.692	373.43
745.018	383.65
745.345	363.22
745.672	455.14
745.998	442.37
746.325	368.32
746.651	363.22
746.978	322.36
747.304	393.86
747.631	386.2
747.957	360.66
748.283	450.03
748.61	404.07
748.936	398.97
749.262	388.75
749.588	365.77
749.914	411.73
750.24	455.14
750.566	406.63
750.892	401.52
751.218	358.11
751.543	396.41
751.869	429.61
752.195	337.68
752.521	345.34
752.846	452.59
753.172	353
753.497	355.56
753.823	309.6
754.148	363.22
754.473	386.2
754.799	460.25
755.124	363.22
755.449	345.34
755.774	388.75
756.1	368.32
756.425	360.66
756.75	409.18
757.075	398.97
757.4	539.4
757.724	381.09
758.049	370.88
758.374	467.91
758.699	370.88
759.024	450.03
759.348	411.73
759.673	350.45
759.997	368.32
760.322	416.84
760.646	401.52
760.971	319.81
761.295	401.52
761.619	411.73
761.944	398.97
762.268	483.23
762.592	452.59
762.916	452.59
763.24	529.19
763.564	559.83
763.888	524.08
764.212	605.79
764.536	539.4
764.86	490.89
765.184	470.46
765.508	513.87
765.831	616
766.155	930.07
766.478	784.53
766.802	891.77
767.126	1004.12
767.449	1284.99
767.772	1473.94
768.096	1542.88
768.419	1468.83
768.742	1443.3
769.066	1277.33
769.389	1147.11
769.712	1034.76
770.035	807.51
770.358	753.88
770.681	835.59
771.004	1034.76
771.327	1233.92
771.65	1637.35
771.972	2206.76
772.295	2492.74
772.618	2684.24
772.941	2891.06
773.263	2893.62
773.586	2765.95
773.908	2689.35
774.231	2533.59
774.553	2107.18
774.875	1790.56
775.198	1379.46
775.52	1228.81
775.842	1310.52
776.164	1535.22
776.487	2091.85
776.809	2617.85
777.131	3189.81
777.453	3593.24
777.775	3960.93
778.096	4566.08
778.418	4537.99
778.74	4032.42
779.062	3606.01
779.384	3192.36
779.705	2898.72
780.027	2628.06
780.348	2022.91
780.67	1657.78
780.991	1593.95
781.313	1859.5
781.634	2520.82
781.955	3271.52
782.277	4333.72
782.598	5722.76
782.919	6376.42
783.24	6833.48
783.561	7096.48
783.882	7275.21
784.203	6958.59
784.524	5937.24
784.845	4798.44
785.166	3442.59
785.487	2663.81
785.807	2025.47
786.128	1637.35
786.449	1486.7
786.769	1770.13
787.09	2502.95
787.41	3787.3
787.731	5503.17
788.051	7129.67
788.372	8276.14
788.692	10201.38
789.012	11133.37
789.332	11164.01
789.653	11018.46
789.973	10073.71
790.293	7824.19
790.613	5768.72
790.933	4149.88
791.253	2972.77
791.573	1999.93
791.893	1519.9
792.212	1583.73
792.532	1846.73
792.852	2694.45
793.171	3697.93
793.491	4596.72
793.811	5406.14
794.13	6200.24
794.45	6751.77
794.769	6728.79
795.088	7234.36
795.408	6493.88
795.727	6049.59
796.046	4895.46
796.365	3851.13
796.684	2873.19
797.004	2033.13
797.323	1596.5
797.642	1310.52
797.96	1361.59
798.279	1984.61
798.598	2617.85
798.917	3623.88
799.236	4486.92
799.554	5069.09
799.873	5610.41
800.192	6693.04
800.51	7247.13
800.829	7024.98
801.147	6539.84
801.466	5855.53
801.784	5196.76
802.102	4024.76
802.421	3314.92
802.739	2704.67
803.057	1933.55
803.375	1364.14
803.693	1167.53
804.011	1328.39
804.329	1736.94
804.647	2178.67
804.965	2901.28
805.283	3547.28
805.601	4252.01
805.918	5196.76
806.236	5457.21
806.554	5630.84
806.871	5891.28
807.189	5937.24
807.507	5827.45
807.824	5002.71
808.141	4149.88
808.459	3059.59
808.776	2199.1
809.093	1481.6
809.411	1078.16
809.728	942.83
810.045	827.93
810.362	922.41
810.679	1274.77
810.996	1563.31
811.313	2061.21
811.63	2699.56
811.947	3016.18
812.264	3217.89
812.58	3332.8
812.897	3335.35
813.214	3210.23
813.53	3128.53
813.847	2965.11
814.163	2566.78
814.48	2222.08
814.796	1821.2
815.113	1351.38
815.429	983.69
815.745	784.53
816.061	695.16
816.378	626.22
816.694	707.92
817.01	993.9
817.326	1170.09
817.642	1509.68
817.958	1647.57
818.274	1713.95
818.59	1846.73
818.905	1879.92
819.221	2140.37
819.537	2311.45
819.852	2211.86
820.168	1951.42
820.484	1882.48
820.799	1629.69
821.115	1422.87
821.43	1159.87
821.745	1014.33
822.061	738.56
822.376	628.77
822.691	549.61
823.006	582.81
823.322	544.51
823.637	631.32
823.952	827.93
824.267	853.47
824.582	1050.08
824.897	1044.97
825.211	1164.98
825.526	1371.8
825.841	1420.32
826.156	1399.89
826.47	1407.55
826.785	1295.2
827.1	1254.35
827.414	1075.61
827.729	932.62
828.043	848.36
828.357	649.2
828.672	506.21
828.986	493.44
829.3	452.59
829.614	488.33
829.929	562.38
830.243	587.92
830.557	595.58
830.871	585.36
831.185	700.26
831.499	707.92
831.812	899.43
832.126	927.51
832.44	937.73
832.754	940.28
833.067	963.26
833.381	968.37
833.695	924.96
834.008	904.53
834.322	804.95
834.635	784.53
834.948	618.56
835.262	485.78
835.575	506.21
835.888	470.46
836.201	444.93
836.515	460.25
836.828	470.46
837.141	404.07
837.454	416.84
837.767	470.46
838.08	411.73
838.392	452.59
838.705	572.6
839.018	541.95
839.331	549.61
839.643	616
839.956	580.26
840.269	544.51
840.581	447.48
840.894	465.35
841.206	483.23
841.519	664.52
841.831	524.08
842.143	388.75
842.455	419.39
842.768	447.48
843.08	370.88
843.392	457.69
843.704	391.31
844.016	411.73
844.328	363.22
844.64	381.09
844.952	342.79
845.263	416.84
845.575	350.45
845.887	490.89
846.199	437.27
846.51	450.03
846.822	424.5
847.133	498.55
847.445	457.69
847.756	419.39
848.068	360.66
848.379	342.79
848.69	434.71
849.002	398.97
849.313	401.52
849.624	335.13
849.935	347.9
850.246	434.71
850.557	406.63
850.868	370.88
851.179	409.18
851.49	432.16
851.801	455.14
852.112	358.11
852.422	319.81
852.733	396.41
853.044	391.31
853.354	368.32
853.665	416.84
853.975	401.52
854.286	434.71
854.596	437.27
854.906	365.77
855.217	388.75
855.527	396.41
855.837	368.32
856.147	312.15
856.458	337.68
856.768	411.73
857.078	373.43
857.388	330.02
857.698	409.18
858.007	396.41
858.317	365.77
858.627	342.79
858.937	391.31
859.246	421.95
859.556	388.75
859.866	317.26
860.175	347.9
860.485	381.09
860.794	381.09
861.104	345.34
861.413	330.02
861.722	447.48
862.032	375.98
862.341	401.52
862.65	414.29
862.959	345.34
863.268	353
863.577	388.75
863.886	411.73
864.195	409.18
864.504	450.03
864.813	439.82
865.122	304.49
865.43	386.2
865.739	345.34
866.048	355.56
866.356	324.92
866.665	368.32
866.973	327.47
867.282	409.18
867.59	470.46
867.899	424.5
868.207	340.24
868.515	386.2
868.823	350.45
869.132	473.01
869.44	358.11
869.748	370.88
870.056	393.86
870.364	437.27
870.672	386.2
870.98	345.34
871.288	340.24
871.595	347.9
871.903	404.07
872.211	373.43
872.518	393.86
872.826	360.66
873.134	381.09
873.441	383.65
873.749	373.43
874.056	404.07
874.363	381.09
874.671	375.98
874.978	378.54
875.285	414.29
875.592	332.58
875.9	350.45
876.207	393.86
876.514	360.66
876.821	291.72
877.128	332.58
877.435	427.05
877.741	368.32
878.048	396.41
878.355	455.14
878.662	337.68
878.968	373.43
879.275	324.92
879.582	444.93
879.888	414.29
880.195	432.16
880.501	373.43
880.807	424.5
881.114	383.65
881.42	409.18
881.726	457.69
882.032	455.14
882.339	327.47
882.645	337.68
882.951	493.44
883.257	393.86
883.563	424.5
883.869	391.31
884.174	375.98
884.48	447.48
884.786	368.32
885.092	368.32
885.397	442.37
885.703	347.9
886.009	337.68
886.314	345.34
886.62	411.73
886.925	365.77
887.231	401.52
887.536	309.6
887.841	434.71
888.146	375.98
888.452	378.54
888.757	442.37
889.062	391.31
889.367	342.79
889.672	342.79
889.977	416.84
890.282	457.69
890.587	411.73
890.892	368.32
891.196	368.32
891.501	358.11
891.806	393.86
892.11	406.63
892.415	401.52
892.72	411.73
893.024	365.77
893.328	490.89
893.633	424.5
893.937	416.84
894.242	421.95
894.546	337.68
894.85	355.56
895.154	347.9
895.458	373.43
895.762	457.69
896.066	416.84
896.37	404.07
896.674	396.41
896.978	337.68
897.282	363.22
897.586	383.65
897.89	383.65
898.193	337.68
898.497	447.48
898.801	363.22
899.104	337.68
899.408	353
899.711	319.81
900.014	358.11
900.318	363.22
900.621	370.88
900.924	347.9
901.228	396.41
901.531	401.52
901.834	378.54
902.137	365.77
902.44	401.52
902.743	322.36
903.046	360.66
903.349	411.73
903.652	342.79
903.955	289.17
904.257	337.68
904.56	365.77
904.863	355.56
905.165	409.18
905.468	391.31
905.77	360.66
906.073	358.11
906.375	322.36
906.678	401.52
906.98	432.16
907.282	391.31
907.584	381.09
907.887	368.32
908.189	401.52
908.491	330.02
908.793	381.09
909.095	370.88
909.397	386.2
909.699	386.2
910.001	381.09
910.302	350.45
910.604	432.16
910.906	358.11
911.208	358.11
911.509	335.13
911.811	350.45
912.112	386.2
912.414	396.41
912.715	391.31
913.017	363.22
913.318	421.95
913.619	368.32
913.92	404.07
914.222	370.88
914.523	398.97
914.824	340.24
915.125	411.73
915.426	419.39
915.727	421.95
916.028	437.27
916.329	386.2
916.63	421.95
916.93	416.84
917.231	365.77
917.532	429.61
917.832	378.54
918.133	345.34
918.434	388.75
918.734	363.22
919.034	370.88
919.335	340.24
919.635	358.11
919.935	416.84
920.236	388.75
920.536	370.88
920.836	381.09
921.136	401.52
921.436	485.78
921.736	391.31
922.036	411.73
922.336	340.24
922.636	365.77
922.936	393.86
923.236	401.52
923.535	360.66
923.835	401.52
924.135	337.68
924.434	353
924.734	381.09
925.033	381.09
925.333	365.77
925.632	375.98
925.932	388.75
926.231	375.98
926.53	375.98
926.83	368.32
927.129	439.82
927.428	365.77
927.727	296.83
928.026	342.79
928.325	309.6
928.624	309.6
928.923	342.79
929.222	416.84
929.52	424.5
929.819	381.09
930.118	345.34
930.417	353
930.715	388.75
931.014	404.07
931.312	401.52
931.611	429.61
931.909	398.97
932.207	365.77
932.506	317.26
932.804	330.02
933.102	452.59
933.401	442.37
933.699	404.07
933.997	309.6
934.295	370.88
934.593	437.27
934.891	365.77
935.189	378.54
935.487	421.95
935.784	406.63
936.082	414.29
936.38	353
936.677	340.24
936.975	381.09
937.273	378.54
937.57	398.97
937.868	363.22
938.165	340.24
938.463	386.2
938.76	396.41
939.057	381.09
939.354	358.11
939.652	375.98
939.949	409.18
940.246	363.22
940.543	370.88
940.84	411.73
941.137	296.83
941.434	335.13
941.731	409.18
942.028	345.34
942.324	401.52
942.621	324.92
942.918	404.07
943.214	222.78
943.511	383.65
943.807	365.77
944.104	388.75
944.4	383.65
944.697	378.54
944.993	414.29
945.29	347.9
945.586	350.45
945.882	363.22
946.178	381.09
946.474	368.32
946.77	314.7
947.066	365.77
947.362	460.25
947.658	427.05
947.954	396.41
948.25	398.97
948.546	373.43
948.842	375.98
949.137	373.43
949.433	347.9
949.729	386.2
950.024	368.32
950.32	378.54
950.615	383.65
950.91	432.16
951.206	424.5
951.501	427.05
951.796	447.48
952.092	439.82
952.387	360.66
952.682	337.68
952.977	368.32
953.272	388.75
953.567	345.34
953.862	330.02
954.157	411.73
954.452	360.66
954.747	401.52
955.041	388.75
955.336	411.73
955.631	355.56
955.925	406.63
956.22	391.31
956.514	375.98
956.809	340.24
957.103	398.97
957.398	296.83
957.692	314.7
957.986	358.11
958.281	375.98
958.575	345.34
958.869	406.63
959.163	373.43
959.457	391.31
959.751	419.39
960.045	383.65
960.339	429.61
960.633	378.54
960.927	406.63
961.221	462.8
961.514	419.39
961.808	401.52
962.102	335.13
962.395	393.86
962.689	421.95
962.982	381.09
963.276	365.77
963.569	358.11
963.862	424.5
964.156	355.56
964.449	432.16
964.742	342.79
965.035	462.8
965.328	393.86
965.622	347.9
965.915	324.92
966.208	383.65
966.5	411.73
966.793	368.32
967.086	350.45
967.379	378.54
967.672	388.75
967.964	370.88
968.257	406.63
968.55	396.41
968.842	386.2
969.135	340.24
969.427	365.77
969.72	378.54
970.012	368.32
970.304	363.22
970.597	370.88
970.889	307.04
971.181	350.45
971.473	345.34
971.765	424.5
972.057	375.98
972.349	406.63
972.641	381.09
972.933	378.54
973.225	353
973.517	363.22
973.809	358.11
974.1	381.09
974.392	391.31
974.684	342.79
974.975	373.43
975.267	365.77
975.558	406.63
975.85	401.52
976.141	393.86
976.432	398.97
976.724	327.47
977.015	255.98
977.306	381.09
977.597	322.36
977.888	355.56
978.179	355.56
978.47	427.05
978.761	340.24
979.052	353
979.343	353
979.634	378.54
979.925	393.86
980.215	340.24
980.506	332.58
980.797	373.43
981.087	375.98
981.378	332.58
981.668	335.13
981.959	409.18
982.249	393.86
982.54	388.75
982.83	342.79
983.12	409.18
983.41	314.7
983.701	368.32
983.991	365.77
984.281	332.58
984.571	335.13
984.861	368.32
985.151	406.63
985.441	429.61
985.73	388.75
986.02	378.54
986.31	350.45
986.6	363.22
986.889	365.77
987.179	411.73
987.469	345.34
987.758	381.09
988.048	368.32
988.337	393.86
988.626	401.52
988.916	404.07
989.205	406.63
989.494	375.98
989.783	353
990.073	406.63
990.362	301.94
990.651	388.75
990.94	393.86
991.229	373.43
991.518	378.54
991.806	281.51
992.095	340.24
992.384	363.22
992.673	327.47
992.961	355.56
993.25	332.58
993.539	330.02
993.827	327.47
994.116	345.34
994.404	337.68
994.692	327.47
994.981	411.73
995.269	365.77
995.557	409.18
995.846	365.77
996.134	391.31
996.422	340.24
996.71	378.54
996.998	375.98
997.286	409.18
997.574	370.88
997.862	401.52
998.15	381.09
998.437	363.22
998.725	335.13
999.013	335.13
999.3	386.2
999.588	391.31
999.876	429.61
1000.163	301.94
1000.45	286.62
1000.738	388.75
1001.025	381.09
1001.313	365.77
1001.6	342.79
1001.887	340.24
1002.174	345.34
1002.461	396.41
1002.748	378.54
1003.036	363.22
1003.322	437.27
1003.609	429.61
1003.896	358.11
1004.183	284.06
1004.47	378.54
1004.757	342.79
1005.043	406.63
1005.33	447.48
1005.617	378.54
1005.903	386.2
1006.19	414.29
1006.476	358.11
1006.763	419.39
1007.049	350.45
1007.335	434.71
1007.622	404.07
1007.908	355.56
1008.194	330.02
1008.48	289.17
1008.766	337.68
1009.053	347.9
1009.339	419.39
1009.625	309.6
1009.91	350.45
1010.196	457.69
1010.482	309.6
1010.768	381.09
1011.054	355.56
1011.339	411.73
1011.625	322.36
1011.911	345.34
1012.196	360.66
1012.482	358.11
1012.767	401.52
1013.052	393.86
1013.338	393.86
1013.623	386.2
1013.908	375.98
1014.194	386.2
1014.479	393.86
1014.764	404.07
1015.049	363.22
1015.334	378.54
1015.619	419.39
1015.904	398.97
1016.189	347.9
1016.474	363.22
1016.758	360.66
1017.043	340.24
1017.328	391.31
1017.613	401.52
1017.897	353
1018.182	350.45
1018.466	340.24
1018.751	365.77
1019.035	416.84
1019.32	424.5
1019.604	355.56
1019.888	345.34
1020.172	345.34
1020.457	345.34
