Data from 2025-12-03_xpw_interference_micrometer_634_FLMS141361__69__119.txt Node

Date: Wed Dec 03 15:48:43 MST 2025
User: james
Spectrometer: FLMS14136
Trigger mode: 0
Integration Time (sec): 1.000000E-1
Scans to average: 1
Electric dark correction enabled: true
Nonlinearity correction enabled: false
Boxcar width: 0
XAxis mode: Wavelengths
Number of Pixels in Spectrum: 2048
>>>>>Begin Spectral Data<<<<<
339.315	-24.9
339.697	-24.9
340.079	-24.9
340.461	-147.46
340.843	-78.52
341.225	-127.03
341.607	-93.84
341.989	-35.11
342.371	-45.32
342.752	-116.82
343.134	-70.86
343.516	-22.34
343.897	-4.47
344.279	56.81
344.661	10.85
345.042	18.51
345.423	33.83
345.805	51.71
346.186	72.13
346.567	115.54
346.949	156.39
347.33	194.7
347.711	187.03
348.092	233
348.473	164.05
348.854	271.3
349.235	202.36
349.616	322.36
349.997	294.28
350.378	299.38
350.758	312.15
351.139	294.28
351.52	327.47
351.9	375.98
352.281	332.58
352.661	286.62
353.042	340.24
353.422	406.63
353.803	391.31
354.183	373.43
354.563	340.24
354.943	455.14
355.324	335.13
355.704	393.86
356.084	383.65
356.464	388.75
356.844	393.86
357.224	350.45
357.603	373.43
357.983	398.97
358.363	386.2
358.743	358.11
359.122	373.43
359.502	404.07
359.882	375.98
360.261	375.98
360.641	386.2
361.02	342.79
361.399	409.18
361.779	335.13
362.158	355.56
362.537	391.31
362.916	337.68
363.296	309.6
363.675	314.7
364.054	391.31
364.433	414.29
364.812	370.88
365.19	363.22
365.569	381.09
365.948	388.75
366.327	358.11
366.705	358.11
367.084	378.54
367.463	358.11
367.841	365.77
368.22	350.45
368.598	375.98
368.977	324.92
369.355	335.13
369.733	350.45
370.111	373.43
370.49	386.2
370.868	355.56
371.246	350.45
371.624	388.75
372.002	337.68
372.38	375.98
372.758	330.02
373.136	286.62
373.513	360.66
373.891	360.66
374.269	416.84
374.646	307.04
375.024	365.77
375.402	342.79
375.779	373.43
376.157	350.45
376.534	375.98
376.911	360.66
377.289	322.36
377.666	317.26
378.043	409.18
378.42	375.98
378.797	414.29
379.175	337.68
379.552	421.95
379.929	381.09
380.305	370.88
380.682	358.11
381.059	437.27
381.436	373.43
381.813	398.97
382.189	393.86
382.566	340.24
382.943	335.13
383.319	368.32
383.696	396.41
384.072	368.32
384.448	368.32
384.825	416.84
385.201	421.95
385.577	432.16
385.953	401.52
386.329	324.92
386.706	437.27
387.082	409.18
387.458	393.86
387.834	398.97
388.209	299.38
388.585	355.56
388.961	396.41
389.337	368.32
389.713	319.81
390.088	332.58
390.464	375.98
390.839	421.95
391.215	421.95
391.59	388.75
391.966	337.68
392.341	432.16
392.716	404.07
393.092	342.79
393.467	345.34
393.842	345.34
394.217	398.97
394.592	327.47
394.967	368.32
395.342	416.84
395.717	427.05
396.092	350.45
396.467	386.2
396.841	324.92
397.216	330.02
397.591	406.63
397.965	317.26
398.34	447.48
398.714	401.52
399.089	434.71
399.463	350.45
399.838	370.88
400.212	386.2
400.586	383.65
400.961	409.18
401.335	429.61
401.709	327.47
402.083	396.41
402.457	388.75
402.831	401.52
403.205	360.66
403.579	370.88
403.953	350.45
404.326	416.84
404.7	383.65
405.074	393.86
405.447	363.22
405.821	434.71
406.195	350.45
406.568	368.32
406.942	429.61
407.315	409.18
407.688	388.75
408.062	373.43
408.435	396.41
408.808	360.66
409.181	324.92
409.554	340.24
409.927	419.39
410.3	391.31
410.673	363.22
411.046	416.84
411.419	368.32
411.792	355.56
412.165	373.43
412.537	398.97
412.91	350.45
413.283	391.31
413.655	447.48
414.028	373.43
414.4	462.8
414.773	398.97
415.145	378.54
415.517	345.34
415.889	404.07
416.262	419.39
416.634	401.52
417.006	396.41
417.378	396.41
417.75	347.9
418.122	406.63
418.494	358.11
418.866	340.24
419.238	381.09
419.609	467.91
419.981	355.56
420.353	335.13
420.725	373.43
421.096	378.54
421.468	401.52
421.839	370.88
422.211	370.88
422.582	373.43
422.953	381.09
423.325	388.75
423.696	398.97
424.067	388.75
424.438	434.71
424.809	409.18
425.18	406.63
425.551	360.66
425.922	416.84
426.293	455.14
426.664	401.52
427.035	447.48
427.406	470.46
427.776	370.88
428.147	388.75
428.518	398.97
428.888	406.63
429.259	401.52
429.629	388.75
429.999	340.24
430.37	447.48
430.74	391.31
431.11	404.07
431.481	355.56
431.851	409.18
432.221	355.56
432.591	398.97
432.961	363.22
433.331	360.66
433.701	411.73
434.071	350.45
434.441	355.56
434.81	373.43
435.18	363.22
435.55	347.9
435.919	353
436.289	381.09
436.658	322.36
437.028	327.47
437.397	386.2
437.767	424.5
438.136	409.18
438.505	358.11
438.875	437.27
439.244	432.16
439.613	424.5
439.982	396.41
440.351	406.63
440.72	473.01
441.089	368.32
441.458	398.97
441.827	375.98
442.196	391.31
442.564	521.53
442.933	411.73
443.302	421.95
443.67	391.31
444.039	373.43
444.407	411.73
444.776	409.18
445.144	409.18
445.513	409.18
445.881	414.29
446.249	373.43
446.617	370.88
446.986	416.84
447.354	457.69
447.722	409.18
448.09	332.58
448.458	388.75
448.826	462.8
449.194	432.16
449.561	381.09
449.929	358.11
450.297	396.41
450.665	455.14
451.032	470.46
451.4	434.71
451.767	396.41
452.135	370.88
452.502	475.57
452.87	345.34
453.237	347.9
453.604	386.2
453.971	419.39
454.339	419.39
454.706	345.34
455.073	467.91
455.44	345.34
455.807	355.56
456.174	447.48
456.541	411.73
456.908	427.05
457.274	340.24
457.641	427.05
458.008	406.63
458.374	358.11
458.741	391.31
459.108	353
459.474	345.34
459.841	375.98
460.207	416.84
460.573	363.22
460.94	353
461.306	406.63
461.672	416.84
462.038	411.73
462.404	373.43
462.771	404.07
463.137	432.16
463.503	421.95
463.868	444.93
464.234	383.65
464.6	388.75
464.966	414.29
465.332	419.39
465.697	460.25
466.063	424.5
466.429	375.98
466.794	388.75
467.16	447.48
467.525	401.52
467.89	398.97
468.256	457.69
468.621	457.69
468.986	386.2
469.351	455.14
469.717	365.77
470.082	411.73
470.447	375.98
470.812	386.2
471.177	383.65
471.542	421.95
471.906	444.93
472.271	360.66
472.636	345.34
473.001	393.86
473.365	398.97
473.73	465.35
474.094	301.94
474.459	462.8
474.823	424.5
475.188	427.05
475.552	347.9
475.917	434.71
476.281	414.29
476.645	358.11
477.009	360.66
477.373	386.2
477.737	353
478.101	419.39
478.465	437.27
478.829	404.07
479.193	432.16
479.557	439.82
479.921	457.69
480.284	442.37
480.648	450.03
481.012	393.86
481.375	416.84
481.739	365.77
482.102	424.5
482.466	396.41
482.829	434.71
483.193	355.56
483.556	406.63
483.919	363.22
484.282	396.41
484.645	404.07
485.009	370.88
485.372	386.2
485.735	470.46
486.098	427.05
486.46	414.29
486.823	414.29
487.186	406.63
487.549	432.16
487.912	386.2
488.274	414.29
488.637	404.07
488.999	488.33
489.362	521.53
489.724	432.16
490.087	393.86
490.449	424.5
490.811	437.27
491.174	416.84
491.536	424.5
491.898	414.29
492.26	434.71
492.622	437.27
492.984	360.66
493.346	444.93
493.708	378.54
494.07	429.61
494.432	478.12
494.794	419.39
495.155	414.29
495.517	452.59
495.879	375.98
496.24	335.13
496.602	340.24
496.963	342.79
497.325	439.82
497.686	381.09
498.048	396.41
498.409	429.61
498.77	398.97
499.131	375.98
499.492	414.29
499.854	396.41
500.215	375.98
500.576	406.63
500.937	401.52
501.298	434.71
501.658	401.52
502.019	386.2
502.38	416.84
502.741	373.43
503.101	429.61
503.462	388.75
503.823	462.8
504.183	416.84
504.543	485.78
504.904	427.05
505.264	473.01
505.625	383.65
505.985	365.77
506.345	434.71
506.705	427.05
507.065	353
507.426	460.25
507.786	432.16
508.146	373.43
508.505	386.2
508.865	388.75
509.225	447.48
509.585	460.25
509.945	409.18
510.304	406.63
510.664	401.52
511.024	432.16
511.383	391.31
511.743	381.09
512.102	360.66
512.462	429.61
512.821	409.18
513.18	419.39
513.539	404.07
513.899	424.5
514.258	411.73
514.617	427.05
514.976	437.27
515.335	398.97
515.694	378.54
516.053	393.86
516.412	381.09
516.771	375.98
517.129	406.63
517.488	391.31
517.847	363.22
518.205	363.22
518.564	447.48
518.922	447.48
519.281	358.11
519.639	322.36
519.998	393.86
520.356	427.05
520.714	406.63
521.073	406.63
521.431	480.67
521.789	409.18
522.147	386.2
522.505	447.48
522.863	457.69
523.221	427.05
523.579	411.73
523.937	406.63
524.295	365.77
524.652	391.31
525.01	365.77
525.368	414.29
525.725	416.84
526.083	386.2
526.44	388.75
526.798	467.91
527.155	409.18
527.513	345.34
527.87	406.63
528.227	401.52
528.584	406.63
528.942	427.05
529.299	452.59
529.656	370.88
530.013	444.93
530.37	391.31
530.727	391.31
531.083	404.07
531.44	398.97
531.797	444.93
532.154	393.86
532.511	414.29
532.867	414.29
533.224	396.41
533.58	419.39
533.937	393.86
534.293	398.97
534.65	434.71
535.006	442.37
535.362	452.59
535.718	424.5
536.075	386.2
536.431	373.43
536.787	424.5
537.143	393.86
537.499	419.39
537.855	386.2
538.211	322.36
538.567	373.43
538.923	455.14
539.278	478.12
539.634	452.59
539.99	404.07
540.345	388.75
540.701	444.93
541.056	406.63
541.412	439.82
541.767	383.65
542.123	391.31
542.478	337.68
542.833	411.73
543.188	406.63
543.544	465.35
543.899	490.89
544.254	421.95
544.609	373.43
544.964	427.05
545.319	368.32
545.674	416.84
546.029	353
546.383	429.61
546.738	386.2
547.093	396.41
547.447	370.88
547.802	353
548.157	381.09
548.511	432.16
548.866	365.77
549.22	383.65
549.574	332.58
549.929	429.61
550.283	495.99
550.637	411.73
550.991	429.61
551.345	470.46
551.699	386.2
552.053	419.39
552.407	434.71
552.761	503.65
553.115	386.2
553.469	427.05
553.823	427.05
554.176	383.65
554.53	404.07
554.884	478.12
555.237	651.75
555.591	427.05
555.944	511.31
556.298	383.65
556.651	427.05
557.005	421.95
557.358	473.01
557.711	442.37
558.064	383.65
558.417	360.66
558.771	485.78
559.124	439.82
559.477	419.39
559.83	424.5
560.182	409.18
560.535	511.31
560.888	462.8
561.241	437.27
561.594	398.97
561.946	396.41
562.299	406.63
562.651	393.86
563.004	406.63
563.356	386.2
563.709	432.16
564.061	416.84
564.413	414.29
564.766	324.92
565.118	401.52
565.47	388.75
565.822	360.66
566.174	444.93
566.526	442.37
566.878	429.61
567.23	427.05
567.582	424.5
567.934	373.43
568.286	393.86
568.638	401.52
568.989	401.52
569.341	444.93
569.693	439.82
570.044	414.29
570.396	388.75
570.747	383.65
571.098	424.5
571.45	391.31
571.801	404.07
572.152	386.2
572.504	409.18
572.855	347.9
573.206	358.11
573.557	439.82
573.908	411.73
574.259	375.98
574.61	365.77
574.961	386.2
575.311	452.59
575.662	460.25
576.013	437.27
576.364	473.01
576.714	401.52
577.065	465.35
577.415	427.05
577.766	381.09
578.116	419.39
578.467	398.97
578.817	424.5
579.167	437.27
579.518	444.93
579.868	416.84
580.218	416.84
580.568	480.67
580.918	421.95
581.268	363.22
581.618	437.27
581.968	370.88
582.318	391.31
582.668	409.18
583.017	358.11
583.367	462.8
583.717	373.43
584.066	434.71
584.416	427.05
584.765	416.84
585.115	429.61
585.464	383.65
585.814	419.39
586.163	350.45
586.512	452.59
586.862	421.95
587.211	470.46
587.56	335.13
587.909	383.65
588.258	409.18
588.607	409.18
588.956	447.48
589.305	360.66
589.654	404.07
590.002	432.16
590.351	391.31
590.7	447.48
591.048	455.14
591.397	388.75
591.746	398.97
592.094	439.82
592.443	447.48
592.791	439.82
593.139	416.84
593.488	360.66
593.836	365.77
594.184	421.95
594.532	396.41
594.88	467.91
595.228	419.39
595.576	452.59
595.924	485.78
596.272	421.95
596.62	396.41
596.968	447.48
597.316	450.03
597.664	368.32
598.011	465.35
598.359	396.41
598.706	442.37
599.054	447.48
599.402	452.59
599.749	490.89
600.096	401.52
600.444	404.07
600.791	442.37
601.138	388.75
601.485	370.88
601.833	388.75
602.18	419.39
602.527	383.65
602.874	437.27
603.221	511.31
603.568	457.69
603.914	416.84
604.261	419.39
604.608	375.98
604.955	396.41
605.301	432.16
605.648	427.05
605.995	391.31
606.341	314.7
606.688	355.56
607.034	419.39
607.38	406.63
607.727	470.46
608.073	421.95
608.419	396.41
608.765	416.84
609.112	421.95
609.458	416.84
609.804	404.07
610.15	360.66
610.496	401.52
610.842	414.29
611.187	355.56
611.533	404.07
611.879	424.5
612.225	383.65
612.57	393.86
612.916	437.27
613.261	363.22
613.607	337.68
613.952	388.75
614.298	383.65
614.643	375.98
614.989	414.29
615.334	381.09
615.679	406.63
616.024	373.43
616.369	391.31
616.714	373.43
617.059	444.93
617.404	406.63
617.749	393.86
618.094	419.39
618.439	383.65
618.784	378.54
619.129	401.52
619.473	393.86
619.818	375.98
620.163	414.29
620.507	416.84
620.852	404.07
621.196	398.97
621.54	442.37
621.885	424.5
622.229	411.73
622.573	439.82
622.918	421.95
623.262	373.43
623.606	353
623.95	434.71
624.294	427.05
624.638	485.78
624.982	429.61
625.326	414.29
625.67	378.54
626.013	386.2
626.357	460.25
626.701	427.05
627.044	393.86
627.388	319.81
627.731	370.88
628.075	396.41
628.418	457.69
628.762	388.75
629.105	419.39
629.448	404.07
629.792	396.41
630.135	437.27
630.478	442.37
630.821	391.31
631.164	337.68
631.507	330.02
631.85	365.77
632.193	393.86
632.536	378.54
632.879	396.41
633.221	409.18
633.564	442.37
633.907	490.89
634.249	350.45
634.592	386.2
634.935	365.77
635.277	358.11
635.619	396.41
635.962	439.82
636.304	406.63
636.646	391.31
636.989	365.77
637.331	360.66
637.673	442.37
638.015	401.52
638.357	450.03
638.699	391.31
639.041	404.07
639.383	388.75
639.725	378.54
640.067	396.41
640.408	393.86
640.75	460.25
641.092	498.55
641.433	391.31
641.775	416.84
642.116	409.18
642.458	473.01
642.799	437.27
643.141	342.79
643.482	360.66
643.823	493.44
644.164	378.54
644.506	432.16
644.847	419.39
645.188	383.65
645.529	378.54
645.87	406.63
646.211	424.5
646.552	381.09
646.893	393.86
647.233	396.41
647.574	345.34
647.915	398.97
648.255	353
648.596	363.22
648.937	442.37
649.277	360.66
649.618	381.09
649.958	465.35
650.298	424.5
650.639	368.32
650.979	383.65
651.319	439.82
651.659	439.82
651.999	363.22
652.339	416.84
652.679	368.32
653.019	427.05
653.359	432.16
653.699	434.71
654.039	406.63
654.379	427.05
654.719	427.05
655.058	388.75
655.398	419.39
655.737	457.69
656.077	375.98
656.416	396.41
656.756	432.16
657.095	360.66
657.435	319.81
657.774	360.66
658.113	467.91
658.452	455.14
658.792	409.18
659.131	475.57
659.47	383.65
659.809	391.31
660.148	383.65
660.487	406.63
660.826	388.75
661.164	419.39
661.503	373.43
661.842	378.54
662.181	406.63
662.519	360.66
662.858	350.45
663.196	383.65
663.535	411.73
663.873	411.73
664.212	388.75
664.55	398.97
664.888	409.18
665.226	444.93
665.565	337.68
665.903	564.93
666.241	508.76
666.579	457.69
666.917	434.71
667.255	406.63
667.593	342.79
667.931	396.41
668.268	406.63
668.606	450.03
668.944	437.27
669.282	363.22
669.619	421.95
669.957	401.52
670.294	416.84
670.632	365.77
670.969	353
671.307	393.86
671.644	429.61
671.981	437.27
672.318	437.27
672.656	368.32
672.993	353
673.33	467.91
673.667	447.48
674.004	391.31
674.341	340.24
674.678	373.43
675.015	457.69
675.351	416.84
675.688	342.79
676.025	388.75
676.362	414.29
676.698	386.2
677.035	406.63
677.371	419.39
677.708	386.2
678.044	419.39
678.38	411.73
678.717	396.41
679.053	391.31
679.389	406.63
679.725	396.41
680.062	322.36
680.398	396.41
680.734	444.93
681.07	370.88
681.406	401.52
681.742	347.9
682.077	345.34
682.413	429.61
682.749	429.61
683.085	434.71
683.42	391.31
683.756	406.63
684.091	437.27
684.427	340.24
684.762	450.03
685.098	424.5
685.433	452.59
685.768	365.77
686.104	353
686.439	396.41
686.774	398.97
687.109	414.29
687.444	391.31
687.779	353
688.114	427.05
688.449	432.16
688.784	388.75
689.119	368.32
689.454	409.18
689.789	457.69
690.123	383.65
690.458	386.2
690.792	375.98
691.127	381.09
691.461	437.27
691.796	353
692.13	370.88
692.465	406.63
692.799	383.65
693.133	360.66
693.467	393.86
693.802	398.97
694.136	381.09
694.47	424.5
694.804	378.54
695.138	429.61
695.472	396.41
695.806	404.07
696.139	419.39
696.473	462.8
696.807	365.77
697.141	370.88
697.474	419.39
697.808	432.16
698.141	414.29
698.475	391.31
698.808	363.22
699.142	447.48
699.475	393.86
699.808	475.57
700.142	363.22
700.475	373.43
700.808	478.12
701.141	378.54
701.474	434.71
701.807	353
702.14	404.07
702.473	365.77
702.806	335.13
703.139	439.82
703.472	404.07
703.804	378.54
704.137	375.98
704.47	386.2
704.802	416.84
705.135	419.39
705.467	391.31
705.8	355.56
706.132	442.37
706.464	437.27
706.797	452.59
707.129	495.99
707.461	437.27
707.793	404.07
708.125	375.98
708.457	439.82
708.789	373.43
709.121	386.2
709.453	388.75
709.785	416.84
710.117	375.98
710.449	368.32
710.781	416.84
711.112	432.16
711.444	411.73
711.775	427.05
712.107	411.73
712.438	401.52
712.77	388.75
713.101	414.29
713.433	396.41
713.764	409.18
714.095	398.97
714.426	391.31
714.757	383.65
715.089	432.16
715.42	375.98
715.751	421.95
716.082	414.29
716.412	393.86
716.743	373.43
717.074	314.7
717.405	424.5
717.736	373.43
718.066	373.43
718.397	347.9
718.727	416.84
719.058	353
719.388	373.43
719.719	404.07
720.049	381.09
720.38	452.59
720.71	307.04
721.04	424.5
721.37	439.82
721.7	439.82
722.031	419.39
722.361	416.84
722.691	378.54
723.021	350.45
723.35	411.73
723.68	416.84
724.01	401.52
724.34	447.48
724.67	414.29
724.999	373.43
725.329	427.05
725.658	378.54
725.988	345.34
726.317	404.07
726.647	378.54
726.976	386.2
727.306	340.24
727.635	360.66
727.964	419.39
728.293	401.52
728.622	427.05
728.952	373.43
729.281	460.25
729.61	411.73
729.939	383.65
730.267	304.49
730.596	378.54
730.925	350.45
731.254	455.14
731.583	347.9
731.911	365.77
732.24	360.66
732.568	404.07
732.897	358.11
733.225	375.98
733.554	355.56
733.882	383.65
734.21	475.57
734.539	411.73
734.867	416.84
735.195	421.95
735.523	312.15
735.851	327.47
736.179	450.03
736.507	345.34
736.835	388.75
737.163	414.29
737.491	391.31
737.819	396.41
738.147	330.02
738.474	386.2
738.802	404.07
739.13	409.18
739.457	319.81
739.785	368.32
740.112	391.31
740.44	378.54
740.767	324.92
741.094	429.61
741.422	416.84
741.749	347.9
742.076	457.69
742.403	421.95
742.73	381.09
743.057	360.66
743.384	437.27
743.711	365.77
744.038	342.79
744.365	490.89
744.692	398.97
745.018	401.52
745.345	473.01
745.672	439.82
745.998	457.69
746.325	437.27
746.651	368.32
746.978	327.47
747.304	488.33
747.631	406.63
747.957	381.09
748.283	355.56
748.61	432.16
748.936	381.09
749.262	350.45
749.588	409.18
749.914	345.34
750.24	409.18
750.566	337.68
750.892	368.32
751.218	411.73
751.543	411.73
751.869	442.37
752.195	391.31
752.521	345.34
752.846	404.07
753.172	368.32
753.497	419.39
753.823	434.71
754.148	391.31
754.473	444.93
754.799	401.52
755.124	406.63
755.449	424.5
755.774	296.83
756.1	424.5
756.425	307.04
756.75	427.05
757.075	398.97
757.4	559.83
757.724	434.71
758.049	452.59
758.374	437.27
758.699	406.63
759.024	416.84
759.348	363.22
759.673	470.46
759.997	421.95
760.322	437.27
760.646	421.95
760.971	424.5
761.295	447.48
761.619	470.46
761.944	473.01
762.268	470.46
762.592	567.49
762.916	539.4
763.24	478.12
763.564	552.17
763.888	585.36
764.212	572.6
764.536	564.93
764.86	508.76
765.184	529.19
765.508	567.49
765.831	600.68
766.155	919.85
766.478	876.45
766.802	922.41
767.126	1175.19
767.449	1407.55
767.772	1662.89
768.096	1688.42
768.419	1619.48
768.742	1581.18
769.066	1330.95
769.389	1198.17
769.712	981.14
770.035	807.51
770.358	779.42
770.681	960.71
771.004	1175.19
771.327	1453.51
771.65	1856.94
771.972	2339.53
772.295	2709.77
772.618	3005.96
772.941	3182.15
773.263	3220.45
773.586	3041.71
773.908	2911.49
774.231	2589.76
774.553	2171.01
774.875	1788
775.198	1509.68
775.52	1233.92
775.842	1415.21
776.164	1629.69
776.487	2464.65
776.809	2944.68
777.131	3603.45
777.453	4080.94
777.775	4438.41
778.096	5010.37
778.418	4724.39
778.74	4231.59
779.062	3692.82
779.384	3274.07
779.705	2993.2
780.027	2390.6
780.348	1823.75
780.67	1471.38
780.991	1522.45
781.313	2015.25
781.634	2857.87
781.955	3703.04
782.277	4982.28
782.598	6330.46
782.919	7037.75
783.24	7566.3
783.561	7844.62
783.882	7632.69
784.203	6943.27
784.524	5978.1
784.845	4762.69
785.166	3491.11
785.487	2538.7
785.807	1923.33
786.128	1537.77
786.449	1507.13
786.769	2102.07
787.09	2891.06
787.41	4407.77
787.731	6215.56
788.051	7890.58
788.372	9266.85
788.692	10860.16
789.012	11848.31
789.332	11592.97
789.653	11271.25
789.973	10009.88
790.293	7839.51
790.613	5528.7
790.933	4093.7
791.253	2742.97
791.573	1867.16
791.893	1588.84
792.212	1690.97
792.532	2168.46
792.852	3039.16
793.171	4144.77
793.491	5143.14
793.811	6159.39
794.13	6925.4
794.45	7114.35
794.769	7014.77
795.088	7129.67
795.408	6529.63
795.727	5978.1
796.046	4719.28
796.365	3756.66
796.684	2689.35
797.004	1976.95
797.323	1491.81
797.642	1310.52
797.96	1596.5
798.279	2211.86
798.598	3228.11
798.917	4103.92
799.236	4989.94
799.554	5587.43
799.873	6154.28
800.192	7300.75
800.51	7908.45
800.829	7456.5
801.147	6601.12
801.466	5817.23
801.784	5069.09
802.102	3907.31
802.421	3138.74
802.739	2441.67
803.057	1833.96
803.375	1359.04
803.693	1262.01
804.011	1389.68
804.329	1953.97
804.647	2518.27
804.965	3240.88
805.283	4014.55
805.601	4604.38
805.918	5475.08
806.236	5766.17
806.554	5847.87
806.871	5952.56
807.189	5942.35
807.507	5778.93
807.824	4923.55
808.141	3891.99
808.459	2903.83
808.776	2020.36
809.093	1453.51
809.411	1085.82
809.728	958.16
810.045	935.17
810.362	1070.5
810.679	1410.1
810.996	1767.58
811.313	2296.13
811.63	2937.02
811.947	3215.34
812.264	3429.83
812.58	3603.45
812.897	3388.97
813.214	3371.1
813.53	3205.13
813.847	3026.39
814.163	2602.53
814.48	2163.35
814.796	1729.28
815.113	1300.31
815.429	950.49
815.745	779.42
816.061	692.6
816.378	710.48
816.694	843.25
817.01	1106.25
817.326	1430.53
817.642	1688.42
817.958	1757.36
818.274	1895.24
818.59	1992.27
818.905	1984.61
819.221	2262.93
819.537	2326.77
819.852	2283.36
820.168	2056.11
820.484	1762.47
820.799	1634.8
821.115	1320.73
821.43	1098.59
821.745	914.75
822.061	766.65
822.376	646.64
822.691	587.92
823.006	572.6
823.322	664.52
823.637	769.21
823.952	838.15
824.267	889.21
824.582	1034.76
824.897	1264.56
825.211	1348.82
825.526	1427.98
825.841	1458.62
826.156	1435.64
826.47	1453.51
826.785	1249.24
827.1	1126.68
827.414	1070.5
827.729	940.28
828.043	771.76
828.357	608.34
828.672	490.89
828.986	447.48
829.3	473.01
829.614	495.99
829.929	516.42
830.243	651.75
830.557	687.5
830.871	751.33
831.185	710.48
831.499	710.48
831.812	871.34
832.126	935.17
832.44	950.49
832.754	996.46
833.067	950.49
833.381	930.07
833.695	960.71
834.008	861.13
834.322	766.65
834.635	743.67
834.948	626.22
835.262	641.54
835.575	516.42
835.888	447.48
836.201	452.59
836.515	480.67
836.828	437.27
837.141	501.1
837.454	513.87
837.767	485.78
838.08	498.55
838.392	524.08
838.705	534.29
839.018	628.77
839.331	603.24
839.643	605.79
839.956	531.74
840.269	598.13
840.581	511.31
840.894	518.97
841.206	465.35
841.519	656.86
841.831	485.78
842.143	452.59
842.455	416.84
842.768	409.18
843.08	347.9
843.392	419.39
843.704	434.71
844.016	375.98
844.328	427.05
844.64	365.77
844.952	401.52
845.263	434.71
845.575	442.37
845.887	467.91
846.199	508.76
846.51	516.42
846.822	398.97
847.133	460.25
847.445	447.48
847.756	360.66
848.068	404.07
848.379	406.63
848.69	365.77
849.002	401.52
849.313	419.39
849.624	388.75
849.935	386.2
850.246	340.24
850.557	429.61
850.868	432.16
851.179	411.73
851.49	427.05
851.801	347.9
852.112	345.34
852.422	388.75
852.733	419.39
853.044	396.41
853.354	401.52
853.665	442.37
853.975	432.16
854.286	324.92
854.596	365.77
854.906	378.54
855.217	393.86
855.527	429.61
855.837	411.73
856.147	360.66
856.458	381.09
856.768	378.54
857.078	375.98
857.388	383.65
857.698	347.9
858.007	383.65
858.317	370.88
858.627	396.41
858.937	368.32
859.246	381.09
859.556	404.07
859.866	322.36
860.175	406.63
860.485	396.41
860.794	317.26
861.104	419.39
861.413	439.82
861.722	386.2
862.032	416.84
862.341	360.66
862.65	396.41
862.959	401.52
863.268	375.98
863.577	386.2
863.886	398.97
864.195	442.37
864.504	353
864.813	437.27
865.122	330.02
865.43	381.09
865.739	398.97
866.048	455.14
866.356	375.98
866.665	337.68
866.973	450.03
867.282	447.48
867.59	398.97
867.899	421.95
868.207	340.24
868.515	432.16
868.823	401.52
869.132	396.41
869.44	301.94
869.748	378.54
870.056	337.68
870.364	404.07
870.672	437.27
870.98	378.54
871.288	437.27
871.595	401.52
871.903	393.86
872.211	381.09
872.518	452.59
872.826	370.88
873.134	409.18
873.441	404.07
873.749	439.82
874.056	434.71
874.363	353
874.671	416.84
874.978	388.75
875.285	447.48
875.592	404.07
875.9	368.32
876.207	370.88
876.514	365.77
876.821	330.02
877.128	383.65
877.435	401.52
877.741	404.07
878.048	406.63
878.355	388.75
878.662	470.46
878.968	347.9
879.275	404.07
879.582	350.45
879.888	406.63
880.195	381.09
880.501	355.56
880.807	398.97
881.114	404.07
881.42	421.95
881.726	419.39
882.032	375.98
882.339	427.05
882.645	434.71
882.951	419.39
883.257	406.63
883.563	457.69
883.869	421.95
884.174	378.54
884.48	370.88
884.786	324.92
885.092	427.05
885.397	388.75
885.703	330.02
886.009	296.83
886.314	416.84
886.62	401.52
886.925	370.88
887.231	368.32
887.536	421.95
887.841	452.59
888.146	378.54
888.452	373.43
888.757	406.63
889.062	419.39
889.367	419.39
889.672	391.31
889.977	404.07
890.282	355.56
890.587	365.77
890.892	381.09
891.196	388.75
891.501	307.04
891.806	350.45
892.11	416.84
892.415	409.18
892.72	421.95
893.024	370.88
893.328	495.99
893.633	396.41
893.937	381.09
894.242	414.29
894.546	373.43
894.85	373.43
895.154	421.95
895.458	347.9
895.762	393.86
896.066	450.03
896.37	409.18
896.674	388.75
896.978	401.52
897.282	398.97
897.586	411.73
897.89	391.31
898.193	370.88
898.497	444.93
898.801	370.88
899.104	383.65
899.408	383.65
899.711	409.18
900.014	347.9
900.318	378.54
900.621	404.07
900.924	414.29
901.228	324.92
901.531	411.73
901.834	421.95
902.137	368.32
902.44	404.07
902.743	427.05
903.046	393.86
903.349	409.18
903.652	437.27
903.955	414.29
904.257	416.84
904.56	393.86
904.863	386.2
905.165	370.88
905.468	414.29
905.77	350.45
906.073	424.5
906.375	416.84
906.678	347.9
906.98	358.11
907.282	409.18
907.584	398.97
907.887	360.66
908.189	401.52
908.491	391.31
908.793	370.88
909.095	462.8
909.397	327.47
909.699	398.97
910.001	378.54
910.302	393.86
910.604	332.58
910.906	411.73
911.208	416.84
911.509	345.34
911.811	398.97
912.112	353
912.414	429.61
912.715	421.95
913.017	386.2
913.318	365.77
913.619	388.75
913.92	421.95
914.222	424.5
914.523	386.2
914.824	345.34
915.125	437.27
915.426	383.65
915.727	363.22
916.028	375.98
916.329	386.2
916.63	447.48
916.93	368.32
917.231	450.03
917.532	396.41
917.832	457.69
918.133	427.05
918.434	386.2
918.734	365.77
919.034	401.52
919.335	406.63
919.635	457.69
919.935	411.73
920.236	386.2
920.536	347.9
920.836	427.05
921.136	452.59
921.436	521.53
921.736	437.27
922.036	386.2
922.336	437.27
922.636	434.71
922.936	396.41
923.236	427.05
923.535	370.88
923.835	432.16
924.135	383.65
924.434	360.66
924.734	360.66
925.033	404.07
925.333	393.86
925.632	409.18
925.932	393.86
926.231	383.65
926.53	414.29
926.83	424.5
927.129	442.37
927.428	398.97
927.727	327.47
928.026	373.43
928.325	404.07
928.624	450.03
928.923	370.88
929.222	314.7
929.52	373.43
929.819	414.29
930.118	421.95
930.417	327.47
930.715	335.13
931.014	404.07
931.312	475.57
931.611	373.43
931.909	350.45
932.207	345.34
932.506	404.07
932.804	393.86
933.102	388.75
933.401	393.86
933.699	401.52
933.997	368.32
934.295	347.9
934.593	370.88
934.891	480.67
935.189	424.5
935.487	421.95
935.784	335.13
936.082	429.61
936.38	432.16
936.677	388.75
936.975	307.04
937.273	345.34
937.57	432.16
937.868	378.54
938.165	467.91
938.463	421.95
938.76	345.34
939.057	455.14
939.354	370.88
939.652	391.31
939.949	363.22
940.246	350.45
940.543	393.86
940.84	286.62
941.137	332.58
941.434	363.22
941.731	368.32
942.028	434.71
942.324	442.37
942.621	409.18
942.918	424.5
943.214	421.95
943.511	404.07
943.807	409.18
944.104	294.28
944.4	404.07
944.697	332.58
944.993	342.79
945.29	401.52
945.586	437.27
945.882	373.43
946.178	378.54
946.474	414.29
946.77	353
947.066	421.95
947.362	439.82
947.658	462.8
947.954	434.71
948.25	383.65
948.546	373.43
948.842	350.45
949.137	363.22
949.433	383.65
949.729	393.86
950.024	378.54
950.32	368.32
950.615	388.75
950.91	404.07
951.206	419.39
951.501	416.84
951.796	391.31
952.092	355.56
952.387	301.94
952.682	406.63
952.977	406.63
953.272	373.43
953.567	396.41
953.862	378.54
954.157	411.73
954.452	299.38
954.747	327.47
955.041	350.45
955.336	350.45
955.631	373.43
955.925	383.65
956.22	401.52
956.514	378.54
956.809	378.54
957.103	317.26
957.398	347.9
957.692	393.86
957.986	442.37
958.281	391.31
958.575	401.52
958.869	375.98
959.163	388.75
959.457	404.07
959.751	383.65
960.045	373.43
960.339	340.24
960.633	370.88
960.927	388.75
961.221	373.43
961.514	363.22
961.808	353
962.102	358.11
962.395	370.88
962.689	373.43
962.982	327.47
963.276	409.18
963.569	386.2
963.862	363.22
964.156	358.11
964.449	314.7
964.742	355.56
965.035	360.66
965.328	368.32
965.622	427.05
965.915	421.95
966.208	406.63
966.5	429.61
966.793	370.88
967.086	360.66
967.379	337.68
967.672	411.73
967.964	391.31
968.257	378.54
968.55	358.11
968.842	319.81
969.135	404.07
969.427	363.22
969.72	365.77
970.012	386.2
970.304	460.25
970.597	404.07
970.889	353
971.181	406.63
971.473	375.98
971.765	411.73
972.057	404.07
972.349	414.29
972.641	421.95
972.933	421.95
973.225	393.86
973.517	409.18
973.809	414.29
974.1	475.57
974.392	434.71
974.684	393.86
974.975	396.41
975.267	424.5
975.558	419.39
975.85	419.39
976.141	398.97
976.432	335.13
976.724	358.11
977.015	447.48
977.306	386.2
977.597	370.88
977.888	324.92
978.179	309.6
978.47	375.98
978.761	416.84
979.052	424.5
979.343	401.52
979.634	342.79
979.925	406.63
980.215	319.81
980.506	342.79
980.797	398.97
981.087	383.65
981.378	406.63
981.668	363.22
981.959	347.9
982.249	401.52
982.54	347.9
982.83	411.73
983.12	414.29
983.41	401.52
983.701	373.43
983.991	416.84
984.281	342.79
984.571	317.26
984.861	378.54
985.151	332.58
985.441	350.45
985.73	419.39
986.02	396.41
986.31	386.2
986.6	404.07
986.889	393.86
987.179	381.09
987.469	411.73
987.758	416.84
988.048	419.39
988.337	429.61
988.626	307.04
988.916	388.75
989.205	355.56
989.494	330.02
989.783	375.98
990.073	411.73
990.362	386.2
990.651	401.52
990.94	419.39
991.229	381.09
991.518	332.58
991.806	314.7
992.095	434.71
992.384	375.98
992.673	347.9
992.961	398.97
993.25	396.41
993.539	347.9
993.827	350.45
994.116	324.92
994.404	375.98
994.692	406.63
994.981	381.09
995.269	393.86
995.557	370.88
995.846	335.13
996.134	360.66
996.422	378.54
996.71	450.03
996.998	347.9
997.286	416.84
997.574	398.97
997.862	401.52
998.15	381.09
998.437	411.73
998.725	355.56
999.013	411.73
999.3	398.97
999.588	424.5
999.876	363.22
1000.163	355.56
1000.45	404.07
1000.738	370.88
1001.025	368.32
1001.313	460.25
1001.6	365.77
1001.887	419.39
1002.174	388.75
1002.461	442.37
1002.748	406.63
1003.036	340.24
1003.322	365.77
1003.609	421.95
1003.896	414.29
1004.183	406.63
1004.47	337.68
1004.757	355.56
1005.043	429.61
1005.33	404.07
1005.617	345.34
1005.903	386.2
1006.19	381.09
1006.476	340.24
1006.763	393.86
1007.049	391.31
1007.335	391.31
1007.622	398.97
1007.908	347.9
1008.194	383.65
1008.48	404.07
1008.766	378.54
1009.053	401.52
1009.339	427.05
1009.625	358.11
1009.91	450.03
1010.196	381.09
1010.482	373.43
1010.768	396.41
1011.054	447.48
1011.339	360.66
1011.625	337.68
1011.911	322.36
1012.196	381.09
1012.482	401.52
1012.767	419.39
1013.052	355.56
1013.338	332.58
1013.623	363.22
1013.908	460.25
1014.194	416.84
1014.479	370.88
1014.764	368.32
1015.049	332.58
1015.334	340.24
1015.619	335.13
1015.904	332.58
1016.189	375.98
1016.474	368.32
1016.758	337.68
1017.043	411.73
1017.328	327.47
1017.613	360.66
1017.897	381.09
1018.182	396.41
1018.466	424.5
1018.751	335.13
1019.035	368.32
1019.32	409.18
1019.604	360.66
1019.888	398.97
1020.172	398.97
1020.457	398.97
