Data from 2025-12-03_xpw_interference_micrometer_634_FLMS141361__45__095.txt Node

Date: Wed Dec 03 15:48:41 MST 2025
User: james
Spectrometer: FLMS14136
Trigger mode: 0
Integration Time (sec): 1.000000E-1
Scans to average: 1
Electric dark correction enabled: true
Nonlinearity correction enabled: false
Boxcar width: 0
XAxis mode: Wavelengths
Number of Pixels in Spectrum: 2048
>>>>>Begin Spectral Data<<<<<
339.315	-138.2
339.697	-138.2
340.079	-138.2
340.461	-163.74
340.843	-117.77
341.225	-94.79
341.607	-120.33
341.989	-79.47
342.371	-76.92
342.752	-59.05
343.134	-48.83
343.516	-15.64
343.897	-30.96
344.279	27.77
344.661	50.75
345.042	-0.32
345.423	32.87
345.805	81.39
346.186	48.2
346.567	147.78
346.949	137.56
347.33	112.03
347.711	137.56
348.092	206.5
348.473	267.79
348.854	226.93
349.235	270.34
349.616	262.68
349.997	300.98
350.378	295.87
350.758	300.98
351.139	323.96
351.52	303.53
351.9	364.81
352.281	321.41
352.661	369.92
353.042	390.35
353.422	405.67
353.803	400.56
354.183	364.81
354.563	357.15
354.943	418.43
355.324	329.07
355.704	336.73
356.084	436.31
356.464	408.22
356.844	362.26
357.224	438.86
357.603	357.15
357.983	298.43
358.363	398.01
358.743	359.71
359.122	362.26
359.502	321.41
359.882	398.01
360.261	321.41
360.641	352.05
361.02	390.35
361.399	359.71
361.779	362.26
362.158	344.39
362.537	359.71
362.916	387.79
363.296	443.97
363.675	339.28
364.054	334.17
364.433	316.3
364.812	311.19
365.19	308.64
365.569	336.73
365.948	344.39
366.327	326.51
366.705	354.6
367.084	290.77
367.463	387.79
367.841	308.64
368.22	290.77
368.598	364.81
368.977	385.24
369.355	341.83
369.733	295.87
370.111	262.68
370.49	329.07
370.868	385.24
371.246	369.92
371.624	362.26
372.002	354.6
372.38	316.3
372.758	267.79
373.136	398.01
373.513	318.85
373.891	323.96
374.269	362.26
374.646	392.9
375.024	357.15
375.402	403.11
375.779	344.39
376.157	339.28
376.534	303.53
376.911	306.09
377.289	380.13
377.666	334.17
378.043	336.73
378.42	344.39
378.797	357.15
379.175	295.87
379.552	400.56
379.929	377.58
380.305	385.24
380.682	362.26
381.059	275.45
381.436	336.73
381.813	341.83
382.189	420.99
382.566	380.13
382.943	387.79
383.319	316.3
383.696	313.75
384.072	372.47
384.448	341.83
384.825	382.69
385.201	398.01
385.577	293.32
385.953	334.17
386.329	344.39
386.706	349.49
387.082	306.09
387.458	283.11
387.834	359.71
388.209	313.75
388.585	418.43
388.961	326.51
389.337	354.6
389.713	367.37
390.088	354.6
390.464	372.47
390.839	341.83
391.215	349.49
391.59	382.69
391.966	369.92
392.341	339.28
392.716	308.64
393.092	362.26
393.467	318.85
393.842	352.05
394.217	352.05
394.592	255.02
394.967	400.56
395.342	428.65
395.717	415.88
396.092	395.45
396.467	357.15
396.841	398.01
397.216	403.11
397.591	395.45
397.965	375.03
398.34	408.22
398.714	331.62
399.089	390.35
399.463	390.35
399.838	323.96
400.212	357.15
400.586	344.39
400.961	357.15
401.335	377.58
401.709	354.6
402.083	306.09
402.457	354.6
402.831	352.05
403.205	346.94
403.579	359.71
403.953	387.79
404.326	400.56
404.7	375.03
405.074	418.43
405.447	403.11
405.821	377.58
406.195	336.73
406.568	369.92
406.942	413.33
407.315	359.71
407.688	311.19
408.062	403.11
408.435	372.47
408.808	318.85
409.181	418.43
409.554	375.03
409.927	303.53
410.3	375.03
410.673	398.01
411.046	341.83
411.419	313.75
411.792	380.13
412.165	339.28
412.537	352.05
412.91	390.35
413.283	364.81
413.655	367.37
414.028	346.94
414.4	323.96
414.773	357.15
415.145	410.77
415.517	433.76
415.889	346.94
416.262	436.31
416.634	428.65
417.006	377.58
417.378	380.13
417.75	341.83
418.122	359.71
418.494	357.15
418.866	326.51
419.238	382.69
419.609	354.6
419.981	392.9
420.353	398.01
420.725	352.05
421.096	354.6
421.468	298.43
421.839	369.92
422.211	413.33
422.582	375.03
422.953	344.39
423.325	403.11
423.696	331.62
424.067	375.03
424.438	359.71
424.809	349.49
425.18	303.53
425.551	359.71
425.922	420.99
426.293	352.05
426.664	372.47
427.035	380.13
427.406	408.22
427.776	469.5
428.147	369.92
428.518	410.77
428.888	372.47
429.259	352.05
429.629	433.76
429.999	428.65
430.37	372.47
430.74	349.49
431.11	359.71
431.481	364.81
431.851	352.05
432.221	385.24
432.591	357.15
432.961	295.87
433.331	385.24
433.701	364.81
434.071	354.6
434.441	352.05
434.81	346.94
435.18	375.03
435.55	380.13
435.919	400.56
436.289	385.24
436.658	362.26
437.028	451.63
437.397	398.01
437.767	336.73
438.136	400.56
438.505	375.03
438.875	346.94
439.244	413.33
439.613	382.69
439.982	357.15
440.351	359.71
440.72	326.51
441.089	380.13
441.458	415.88
441.827	336.73
442.196	387.79
442.564	484.82
442.933	408.22
443.302	375.03
443.67	418.43
444.039	392.9
444.407	303.53
444.776	377.58
445.144	405.67
445.513	387.79
445.881	369.92
446.249	375.03
446.617	367.37
446.986	375.03
447.354	377.58
447.722	341.83
448.09	405.67
448.458	408.22
448.826	451.63
449.194	392.9
449.561	400.56
449.929	375.03
450.297	382.69
450.665	382.69
451.032	477.16
451.4	408.22
451.767	400.56
452.135	441.42
452.502	354.6
452.87	385.24
453.237	454.18
453.604	357.15
453.971	392.9
454.339	354.6
454.706	385.24
455.073	441.42
455.44	398.01
455.807	431.2
456.174	385.24
456.541	344.39
456.908	387.79
457.274	392.9
457.641	382.69
458.008	400.56
458.374	385.24
458.741	408.22
459.108	415.88
459.474	400.56
459.841	346.94
460.207	380.13
460.573	357.15
460.94	329.07
461.306	357.15
461.672	459.29
462.038	423.54
462.404	443.97
462.771	346.94
463.137	438.86
463.503	428.65
463.868	420.99
464.234	410.77
464.6	459.29
464.966	311.19
465.332	372.47
465.697	392.9
466.063	423.54
466.429	372.47
466.794	339.28
467.16	400.56
467.525	359.71
467.89	323.96
468.256	318.85
468.621	372.47
468.986	403.11
469.351	433.76
469.717	385.24
470.082	367.37
470.447	369.92
470.812	364.81
471.177	390.35
471.542	400.56
471.906	423.54
472.271	382.69
472.636	446.52
473.001	377.58
473.365	398.01
473.73	369.92
474.094	405.67
474.459	375.03
474.823	408.22
475.188	377.58
475.552	377.58
475.917	359.71
476.281	354.6
476.645	387.79
477.009	362.26
477.373	367.37
477.737	331.62
478.101	339.28
478.465	398.01
478.829	446.52
479.193	433.76
479.557	385.24
479.921	423.54
480.284	438.86
480.648	431.2
481.012	431.2
481.375	461.84
481.739	410.77
482.102	346.94
482.466	428.65
482.829	403.11
483.193	387.79
483.556	418.43
483.919	362.26
484.282	428.65
484.645	395.45
485.009	377.58
485.372	387.79
485.735	410.77
486.098	387.79
486.46	385.24
486.823	352.05
487.186	387.79
487.549	377.58
487.912	413.33
488.274	420.99
488.637	410.77
488.999	377.58
489.362	433.76
489.724	405.67
490.087	403.11
490.449	403.11
490.811	377.58
491.174	375.03
491.536	375.03
491.898	415.88
492.26	385.24
492.622	357.15
492.984	339.28
493.346	385.24
493.708	380.13
494.07	426.09
494.432	398.01
494.794	418.43
495.155	344.39
495.517	398.01
495.879	385.24
496.24	321.41
496.602	352.05
496.963	329.07
497.325	428.65
497.686	400.56
498.048	339.28
498.409	415.88
498.77	387.79
499.131	392.9
499.492	352.05
499.854	377.58
500.215	436.31
500.576	398.01
500.937	420.99
501.298	344.39
501.658	392.9
502.019	339.28
502.38	418.43
502.741	392.9
503.101	385.24
503.462	385.24
503.823	398.01
504.183	382.69
504.543	359.71
504.904	369.92
505.264	400.56
505.625	387.79
505.985	395.45
506.345	408.22
506.705	372.47
507.065	306.09
507.426	392.9
507.786	364.81
508.146	403.11
508.505	369.92
508.865	341.83
509.225	395.45
509.585	492.48
509.945	313.75
510.304	377.58
510.664	497.59
511.024	359.71
511.383	387.79
511.743	359.71
512.102	403.11
512.462	390.35
512.821	392.9
513.18	408.22
513.539	382.69
513.899	339.28
514.258	321.41
514.617	329.07
514.976	377.58
515.335	431.2
515.694	382.69
516.053	380.13
516.412	357.15
516.771	382.69
517.129	321.41
517.488	323.96
517.847	392.9
518.205	326.51
518.564	410.77
518.922	390.35
519.281	375.03
519.639	390.35
519.998	408.22
520.356	443.97
520.714	418.43
521.073	410.77
521.431	367.37
521.789	398.01
522.147	359.71
522.505	438.86
522.863	433.76
523.221	387.79
523.579	428.65
523.937	392.9
524.295	331.62
524.652	354.6
525.01	316.3
525.368	387.79
525.725	334.17
526.083	339.28
526.44	359.71
526.798	438.86
527.155	387.79
527.513	405.67
527.87	403.11
528.227	352.05
528.584	372.47
528.942	423.54
529.299	461.84
529.656	405.67
530.013	426.09
530.37	385.24
530.727	482.27
531.083	413.33
531.44	364.81
531.797	415.88
532.154	339.28
532.511	346.94
532.867	400.56
533.224	390.35
533.58	426.09
533.937	392.9
534.293	372.47
534.65	418.43
535.006	403.11
535.362	369.92
535.718	400.56
536.075	400.56
536.431	362.26
536.787	385.24
537.143	398.01
537.499	413.33
537.855	443.97
538.211	420.99
538.567	359.71
538.923	403.11
539.278	385.24
539.634	359.71
539.99	398.01
540.345	428.65
540.701	339.28
541.056	375.03
541.412	367.37
541.767	408.22
542.123	377.58
542.478	418.43
542.833	446.52
543.188	449.08
543.544	423.54
543.899	438.86
544.254	408.22
544.609	380.13
544.964	382.69
545.319	405.67
545.674	382.69
546.029	372.47
546.383	367.37
546.738	364.81
547.093	318.85
547.447	354.6
547.802	380.13
548.157	428.65
548.511	487.38
548.866	387.79
549.22	395.45
549.574	413.33
549.929	408.22
550.283	415.88
550.637	387.79
550.991	415.88
551.345	369.92
551.699	418.43
552.053	364.81
552.407	438.86
552.761	400.56
553.115	398.01
553.469	428.65
553.823	436.31
554.176	367.37
554.53	413.33
554.884	449.08
555.237	592.06
555.591	482.27
555.944	413.33
556.298	344.39
556.651	413.33
557.005	428.65
557.358	403.11
557.711	456.74
558.064	426.09
558.417	482.27
558.771	500.14
559.124	390.35
559.477	436.31
559.83	375.03
560.182	372.47
560.535	464.4
560.888	377.58
561.241	395.45
561.594	410.77
561.946	344.39
562.299	431.2
562.651	418.43
563.004	395.45
563.356	418.43
563.709	410.77
564.061	408.22
564.413	387.79
564.766	380.13
565.118	423.54
565.47	382.69
565.822	326.51
566.174	285.66
566.526	398.01
566.878	420.99
567.23	349.49
567.582	398.01
567.934	408.22
568.286	423.54
568.638	367.37
568.989	321.41
569.341	438.86
569.693	377.58
570.044	410.77
570.396	382.69
570.747	436.31
571.098	454.18
571.45	403.11
571.801	438.86
572.152	395.45
572.504	385.24
572.855	390.35
573.206	400.56
573.557	372.47
573.908	288.21
574.259	257.57
574.61	372.47
574.961	392.9
575.311	466.95
575.662	341.83
576.013	377.58
576.364	364.81
576.714	451.63
577.065	369.92
577.415	395.45
577.766	408.22
578.116	441.42
578.467	377.58
578.817	408.22
579.167	385.24
579.518	367.37
579.868	413.33
580.218	423.54
580.568	382.69
580.918	410.77
581.268	331.62
581.618	405.67
581.968	456.74
582.318	405.67
582.668	387.79
583.017	380.13
583.367	375.03
583.717	318.85
584.066	395.45
584.416	408.22
584.765	362.26
585.115	436.31
585.464	423.54
585.814	436.31
586.163	377.58
586.512	405.67
586.862	349.49
587.211	415.88
587.56	400.56
587.909	372.47
588.258	369.92
588.607	367.37
588.956	415.88
589.305	433.76
589.654	400.56
590.002	382.69
590.351	336.73
590.7	359.71
591.048	375.03
591.397	443.97
591.746	349.49
592.094	367.37
592.443	387.79
592.791	344.39
593.139	431.2
593.488	372.47
593.836	418.43
594.184	403.11
594.532	359.71
594.88	459.29
595.228	359.71
595.576	316.3
595.924	380.13
596.272	443.97
596.62	362.26
596.968	367.37
597.316	321.41
597.664	331.62
598.011	390.35
598.359	385.24
598.706	423.54
599.054	380.13
599.402	354.6
599.749	387.79
600.096	369.92
600.444	410.77
600.791	362.26
601.138	380.13
601.485	377.58
601.833	387.79
602.18	408.22
602.527	405.67
602.874	346.94
603.221	362.26
603.568	403.11
603.914	367.37
604.261	359.71
604.608	372.47
604.955	354.6
605.301	375.03
605.648	413.33
605.995	290.77
606.341	323.96
606.688	364.81
607.034	436.31
607.38	359.71
607.727	415.88
608.073	400.56
608.419	329.07
608.765	344.39
609.112	341.83
609.458	329.07
609.804	413.33
610.15	408.22
610.496	415.88
610.842	400.56
611.187	464.4
611.533	334.17
611.879	357.15
612.225	364.81
612.57	377.58
612.916	420.99
613.261	354.6
613.607	392.9
613.952	375.03
614.298	413.33
614.643	403.11
614.989	369.92
615.334	415.88
615.679	390.35
616.024	395.45
616.369	375.03
616.714	357.15
617.059	415.88
617.404	362.26
617.749	349.49
618.094	400.56
618.439	418.43
618.784	339.28
619.129	426.09
619.473	443.97
619.818	372.47
620.163	357.15
620.507	413.33
620.852	395.45
621.196	369.92
621.54	410.77
621.885	423.54
622.229	385.24
622.573	400.56
622.918	392.9
623.262	377.58
623.606	329.07
623.95	293.32
624.294	352.05
624.638	395.45
624.982	382.69
625.326	362.26
625.67	339.28
626.013	369.92
626.357	405.67
626.701	400.56
627.044	369.92
627.388	377.58
627.731	398.01
628.075	323.96
628.418	352.05
628.762	352.05
629.105	367.37
629.448	433.76
629.792	380.13
630.135	354.6
630.478	395.45
630.821	336.73
631.164	385.24
631.507	362.26
631.85	451.63
632.193	359.71
632.536	331.62
632.879	446.52
633.221	410.77
633.564	398.01
633.907	392.9
634.249	395.45
634.592	446.52
634.935	377.58
635.277	382.69
635.619	369.92
635.962	380.13
636.304	441.42
636.646	387.79
636.989	364.81
637.331	377.58
637.673	387.79
638.015	372.47
638.357	382.69
638.699	415.88
639.041	423.54
639.383	341.83
639.725	380.13
640.067	395.45
640.408	400.56
640.75	334.17
641.092	400.56
641.433	403.11
641.775	339.28
642.116	377.58
642.458	410.77
642.799	331.62
643.141	349.49
643.482	372.47
643.823	367.37
644.164	382.69
644.506	441.42
644.847	352.05
645.188	364.81
645.529	423.54
645.87	410.77
646.211	367.37
646.552	334.17
646.893	354.6
647.233	400.56
647.574	382.69
647.915	357.15
648.255	339.28
648.596	339.28
648.937	367.37
649.277	390.35
649.618	403.11
649.958	449.08
650.298	449.08
650.639	331.62
650.979	418.43
651.319	349.49
651.659	377.58
651.999	367.37
652.339	369.92
652.679	403.11
653.019	387.79
653.359	377.58
653.699	387.79
654.039	341.83
654.379	390.35
654.719	403.11
655.058	290.77
655.398	377.58
655.737	487.38
656.077	418.43
656.416	385.24
656.756	344.39
657.095	336.73
657.435	395.45
657.774	372.47
658.113	344.39
658.452	334.17
658.792	382.69
659.131	400.56
659.47	375.03
659.809	385.24
660.148	369.92
660.487	385.24
660.826	341.83
661.164	420.99
661.503	380.13
661.842	352.05
662.181	420.99
662.519	313.75
662.858	321.41
663.196	372.47
663.535	318.85
663.873	357.15
664.212	436.31
664.55	466.95
664.888	426.09
665.226	372.47
665.565	377.58
665.903	609.94
666.241	415.88
666.579	369.92
666.917	354.6
667.255	392.9
667.593	385.24
667.931	415.88
668.268	362.26
668.606	323.96
668.944	339.28
669.282	426.09
669.619	395.45
669.957	390.35
670.294	375.03
670.632	367.37
670.969	369.92
671.307	359.71
671.644	341.83
671.981	369.92
672.318	438.86
672.656	433.76
672.993	387.79
673.33	303.53
673.667	372.47
674.004	341.83
674.341	354.6
674.678	423.54
675.015	441.42
675.351	436.31
675.688	395.45
676.025	344.39
676.362	308.64
676.698	341.83
677.035	385.24
677.371	344.39
677.708	364.81
678.044	346.94
678.38	375.03
678.717	369.92
679.053	359.71
679.389	415.88
679.725	341.83
680.062	293.32
680.398	464.4
680.734	387.79
681.07	405.67
681.406	420.99
681.742	395.45
682.077	446.52
682.413	408.22
682.749	344.39
683.085	331.62
683.42	349.49
683.756	380.13
684.091	382.69
684.427	323.96
684.762	400.56
685.098	352.05
685.433	387.79
685.768	405.67
686.104	318.85
686.439	413.33
686.774	375.03
687.109	346.94
687.444	369.92
687.779	454.18
688.114	420.99
688.449	477.16
688.784	346.94
689.119	367.37
689.454	385.24
689.789	382.69
690.123	364.81
690.458	382.69
690.792	403.11
691.127	400.56
691.461	456.74
691.796	390.35
692.13	364.81
692.465	375.03
692.799	398.01
693.133	339.28
693.467	336.73
693.802	349.49
694.136	364.81
694.47	413.33
694.804	418.43
695.138	382.69
695.472	403.11
695.806	400.56
696.139	431.2
696.473	413.33
696.807	405.67
697.141	390.35
697.474	367.37
697.808	352.05
698.141	405.67
698.475	349.49
698.808	341.83
699.142	408.22
699.475	369.92
699.808	364.81
700.142	331.62
700.475	441.42
700.808	408.22
701.141	352.05
701.474	369.92
701.807	390.35
702.14	392.9
702.473	372.47
702.806	375.03
703.139	382.69
703.472	398.01
703.804	334.17
704.137	308.64
704.47	385.24
704.802	369.92
705.135	362.26
705.467	339.28
705.8	372.47
706.132	313.75
706.464	377.58
706.797	395.45
707.129	403.11
707.461	461.84
707.793	405.67
708.125	438.86
708.457	364.81
708.789	385.24
709.121	423.54
709.453	415.88
709.785	398.01
710.117	369.92
710.449	395.45
710.781	380.13
711.112	385.24
711.444	428.65
711.775	418.43
712.107	339.28
712.438	346.94
712.77	420.99
713.101	387.79
713.433	362.26
713.764	382.69
714.095	372.47
714.426	352.05
714.757	372.47
715.089	395.45
715.42	380.13
715.751	441.42
716.082	375.03
716.412	420.99
716.743	364.81
717.074	398.01
717.405	326.51
717.736	385.24
718.066	392.9
718.397	441.42
718.727	336.73
719.058	392.9
719.388	318.85
719.719	354.6
720.049	362.26
720.38	433.76
720.71	431.2
721.04	377.58
721.37	492.48
721.7	334.17
722.031	334.17
722.361	341.83
722.691	418.43
723.021	428.65
723.35	415.88
723.68	344.39
724.01	400.56
724.34	377.58
724.67	433.76
724.999	354.6
725.329	441.42
725.658	413.33
725.988	398.01
726.317	415.88
726.647	385.24
726.976	367.37
727.306	395.45
727.635	408.22
727.964	390.35
728.293	420.99
728.622	418.43
728.952	359.71
729.281	398.01
729.61	346.94
729.939	398.01
730.267	377.58
730.596	372.47
730.925	449.08
731.254	382.69
731.583	367.37
731.911	423.54
732.24	420.99
732.568	382.69
732.897	313.75
733.225	357.15
733.554	318.85
733.882	331.62
734.21	334.17
734.539	323.96
734.867	346.94
735.195	352.05
735.523	390.35
735.851	364.81
736.179	344.39
736.507	372.47
736.835	323.96
737.163	372.47
737.491	436.31
737.819	420.99
738.147	323.96
738.474	410.77
738.802	400.56
739.13	390.35
739.457	346.94
739.785	318.85
740.112	382.69
740.44	443.97
740.767	387.79
741.094	300.98
741.422	377.58
741.749	308.64
742.076	380.13
742.403	403.11
742.73	369.92
743.057	438.86
743.384	403.11
743.711	336.73
744.038	405.67
744.365	413.33
744.692	372.47
745.018	359.71
745.345	443.97
745.672	380.13
745.998	385.24
746.325	329.07
746.651	341.83
746.978	354.6
747.304	346.94
747.631	329.07
747.957	372.47
748.283	405.67
748.61	451.63
748.936	382.69
749.262	316.3
749.588	369.92
749.914	334.17
750.24	403.11
750.566	477.16
750.892	321.41
751.218	357.15
751.543	364.81
751.869	390.35
752.195	288.21
752.521	344.39
752.846	398.01
753.172	420.99
753.497	428.65
753.823	377.58
754.148	375.03
754.473	372.47
754.799	418.43
755.124	433.76
755.449	387.79
755.774	364.81
756.1	487.38
756.425	418.43
756.75	364.81
757.075	362.26
757.4	451.63
757.724	420.99
758.049	413.33
758.374	410.77
758.699	426.09
759.024	459.29
759.348	423.54
759.673	364.81
759.997	423.54
760.322	477.16
760.646	357.15
760.971	354.6
761.295	431.2
761.619	380.13
761.944	323.96
762.268	454.18
762.592	492.48
762.916	469.5
763.24	535.89
763.564	538.44
763.888	528.23
764.212	525.68
764.536	515.46
764.86	472.06
765.184	548.66
765.508	507.8
765.831	574.19
766.155	860.17
766.478	857.62
766.802	906.13
767.126	1003.16
767.449	1189.55
767.772	1409.15
768.096	1485.75
768.419	1421.91
768.742	1414.25
769.066	1304.46
769.389	1102.74
769.712	926.56
770.035	806.55
770.358	712.07
770.681	788.67
771.004	929.11
771.327	1181.89
771.65	1526.6
771.972	2014.3
772.295	2302.83
772.618	2517.31
772.941	2693.49
773.263	2790.52
773.586	2675.62
773.908	2576.04
774.231	2346.24
774.553	1983.66
774.875	1633.84
775.198	1296.8
775.52	1092.53
775.842	1095.08
776.164	1352.97
776.487	1914.71
776.809	2353.9
777.131	2961.6
777.453	3451.85
777.775	3781.23
778.096	4215.31
778.418	4256.16
778.74	3829.75
779.062	3395.67
779.384	3079.05
779.705	2846.7
780.027	2392.2
780.348	1889.18
780.67	1513.83
780.991	1370.84
781.313	1636.4
781.634	2200.69
781.955	2966.71
782.277	3982.95
782.598	4988.98
782.919	5765.21
783.24	6385.68
783.561	6722.73
783.882	6495.47
784.203	6549.1
784.524	5517.53
784.845	4462.99
785.166	3380.35
785.487	2471.35
785.807	1812.58
786.128	1414.25
786.449	1414.25
786.769	1674.7
787.09	2236.44
787.41	3423.76
787.731	5108.99
788.051	6513.35
788.372	7726.2
788.692	9191.84
789.012	10111.06
789.332	10381.72
789.653	9924.66
789.973	9189.29
790.293	7327.88
790.613	5229
790.933	3944.65
791.253	2683.28
791.573	1886.63
791.893	1508.73
792.212	1455.11
792.532	1730.87
792.852	2371.77
793.171	3342.05
793.491	4199.99
793.811	5119.2
794.13	5997.57
794.45	6301.42
794.769	6122.68
795.088	6352.49
795.408	6035.87
795.727	5673.29
796.046	4462.99
796.365	3776.13
796.684	2747.12
797.004	1981.1
797.323	1406.59
797.642	1215.09
797.96	1268.71
798.279	1690.02
798.598	2338.58
798.917	3178.64
799.236	4039.12
799.554	4529.37
799.873	5129.42
800.192	6076.72
800.51	6750.81
800.829	6676.76
801.147	6115.02
801.466	5499.66
801.784	4840.89
802.102	3712.29
802.421	3142.89
802.739	2601.57
803.057	1835.56
803.375	1286.58
803.693	1166.57
804.011	1181.89
804.329	1549.58
804.647	2009.19
804.965	2517.31
805.283	3395.67
805.601	3847.62
805.918	4542.14
806.236	4991.53
806.554	5221.34
806.871	5471.57
807.189	5456.25
807.507	5343.9
807.824	4669.81
808.141	3891.03
808.459	2831.38
808.776	2093.45
809.093	1424.47
809.411	1036.35
809.728	908.68
810.045	862.72
810.362	949.54
810.679	1166.57
810.996	1549.58
811.313	1909.61
811.63	2412.62
811.947	2752.22
812.264	2976.92
812.58	3050.97
812.897	3140.34
813.214	3109.7
813.53	3056.07
813.847	2795.63
814.163	2616.89
814.48	2182.82
814.796	1789.6
815.113	1332.54
815.429	998.05
815.745	750.37
816.061	696.75
816.378	602.28
816.694	681.43
817.01	926.56
817.326	1166.57
817.642	1363.18
817.958	1608.31
818.274	1610.86
818.59	1733.42
818.905	1812.58
819.221	2055.15
819.537	2106.22
819.852	2101.11
820.168	1855.99
820.484	1789.6
820.799	1516.39
821.115	1347.86
821.43	1095.08
821.745	901.02
822.061	714.63
822.376	712.07
822.691	530.78
823.006	530.78
823.322	551.21
823.637	689.09
823.952	737.61
824.267	821.87
824.582	975.07
824.897	1046.57
825.211	1227.86
825.526	1261.05
825.841	1335.1
826.156	1370.84
826.47	1227.86
826.785	1281.48
827.1	1105.29
827.414	1049.12
827.729	924
828.043	775.91
828.357	620.15
828.672	571.64
828.986	507.8
829.3	451.63
829.614	495.04
829.929	477.16
830.243	541
830.557	574.19
830.871	576.74
831.185	615.04
831.499	691.65
831.812	786.12
832.126	826.98
832.44	865.28
832.754	832.08
833.067	936.77
833.381	959.75
833.695	893.36
834.008	834.64
834.322	798.89
834.635	691.65
834.948	586.96
835.262	558.87
835.575	512.91
835.888	428.65
836.201	451.63
836.515	390.35
836.828	415.88
837.141	443.97
837.454	408.22
837.767	443.97
838.08	484.82
838.392	492.48
838.705	492.48
839.018	484.82
839.331	477.16
839.643	441.42
839.956	500.14
840.269	541
840.581	609.94
840.894	518.02
841.206	535.89
841.519	689.09
841.831	505.25
842.143	502.7
842.455	431.2
842.768	390.35
843.08	380.13
843.392	415.88
843.704	428.65
844.016	449.08
844.328	484.82
844.64	352.05
844.952	395.45
845.263	433.76
845.575	479.72
845.887	466.95
846.199	492.48
846.51	518.02
846.822	461.84
847.133	398.01
847.445	400.56
847.756	469.5
848.068	410.77
848.379	372.47
848.69	341.83
849.002	428.65
849.313	398.01
849.624	336.73
849.935	344.39
850.246	420.99
850.557	454.18
850.868	372.47
851.179	352.05
851.49	369.92
851.801	387.79
852.112	323.96
852.422	349.49
852.733	354.6
853.044	428.65
853.354	428.65
853.665	410.77
853.975	403.11
854.286	441.42
854.596	423.54
854.906	423.54
855.217	367.37
855.527	431.2
855.837	403.11
856.147	431.2
856.458	278
856.768	357.15
857.078	382.69
857.388	390.35
857.698	382.69
858.007	387.79
858.317	367.37
858.627	349.49
858.937	341.83
859.246	313.75
859.556	367.37
859.866	387.79
860.175	413.33
860.485	420.99
860.794	349.49
861.104	382.69
861.413	326.51
861.722	334.17
862.032	362.26
862.341	367.37
862.65	385.24
862.959	392.9
863.268	364.81
863.577	349.49
863.886	367.37
864.195	426.09
864.504	410.77
864.813	359.71
865.122	290.77
865.43	326.51
865.739	349.49
866.048	387.79
866.356	311.19
866.665	318.85
866.973	362.26
867.282	362.26
867.59	331.62
867.899	334.17
868.207	341.83
868.515	288.21
868.823	334.17
869.132	323.96
869.44	375.03
869.748	354.6
870.056	387.79
870.364	400.56
870.672	359.71
870.98	395.45
871.288	354.6
871.595	372.47
871.903	392.9
872.211	382.69
872.518	395.45
872.826	431.2
873.134	400.56
873.441	385.24
873.749	420.99
874.056	334.17
874.363	387.79
874.671	382.69
874.978	323.96
875.285	398.01
875.592	395.45
875.9	352.05
876.207	369.92
876.514	426.09
876.821	377.58
877.128	390.35
877.435	441.42
877.741	357.15
878.048	369.92
878.355	367.37
878.662	341.83
878.968	392.9
879.275	433.76
879.582	449.08
879.888	408.22
880.195	415.88
880.501	415.88
880.807	420.99
881.114	336.73
881.42	357.15
881.726	375.03
882.032	364.81
882.339	392.9
882.645	341.83
882.951	382.69
883.257	323.96
883.563	359.71
883.869	313.75
884.174	318.85
884.48	385.24
884.786	385.24
885.092	341.83
885.397	359.71
885.703	387.79
886.009	441.42
886.314	441.42
886.62	420.99
886.925	341.83
887.231	408.22
887.536	352.05
887.841	418.43
888.146	398.01
888.452	400.56
888.757	336.73
889.062	400.56
889.367	443.97
889.672	382.69
889.977	321.41
890.282	387.79
890.587	403.11
890.892	359.71
891.196	339.28
891.501	293.32
891.806	346.94
892.11	359.71
892.415	326.51
892.72	316.3
893.024	426.09
893.328	454.18
893.633	418.43
893.937	311.19
894.242	377.58
894.546	380.13
894.85	334.17
895.154	367.37
895.458	334.17
895.762	464.4
896.066	438.86
896.37	359.71
896.674	346.94
896.978	420.99
897.282	436.31
897.586	398.01
897.89	341.83
898.193	352.05
898.497	382.69
898.801	415.88
899.104	346.94
899.408	405.67
899.711	359.71
900.014	380.13
900.318	405.67
900.621	372.47
900.924	380.13
901.228	413.33
901.531	392.9
901.834	364.81
902.137	318.85
902.44	331.62
902.743	364.81
903.046	339.28
903.349	339.28
903.652	352.05
903.955	410.77
904.257	375.03
904.56	295.87
904.863	362.26
905.165	298.43
905.468	331.62
905.77	349.49
906.073	321.41
906.375	400.56
906.678	403.11
906.98	344.39
907.282	418.43
907.584	385.24
907.887	403.11
908.189	385.24
908.491	390.35
908.793	357.15
909.095	344.39
909.397	364.81
909.699	364.81
910.001	438.86
910.302	382.69
910.604	323.96
910.906	369.92
911.208	400.56
911.509	367.37
911.811	339.28
912.112	318.85
912.414	357.15
912.715	377.58
913.017	326.51
913.318	408.22
913.619	331.62
913.92	352.05
914.222	423.54
914.523	382.69
914.824	346.94
915.125	400.56
915.426	369.92
915.727	354.6
916.028	318.85
916.329	398.01
916.63	377.58
916.93	392.9
917.231	364.81
917.532	300.98
917.832	357.15
918.133	336.73
918.434	415.88
918.734	385.24
919.034	354.6
919.335	352.05
919.635	423.54
919.935	405.67
920.236	359.71
920.536	349.49
920.836	390.35
921.136	344.39
921.436	441.42
921.736	408.22
922.036	346.94
922.336	387.79
922.636	364.81
922.936	341.83
923.236	357.15
923.535	377.58
923.835	377.58
924.135	451.63
924.434	329.07
924.734	398.01
925.033	362.26
925.333	346.94
925.632	357.15
925.932	382.69
926.231	352.05
926.53	334.17
926.83	357.15
927.129	408.22
927.428	420.99
927.727	369.92
928.026	344.39
928.325	382.69
928.624	357.15
928.923	362.26
929.222	408.22
929.52	339.28
929.819	354.6
930.118	398.01
930.417	339.28
930.715	311.19
931.014	341.83
931.312	395.45
931.611	377.58
931.909	352.05
932.207	364.81
932.506	344.39
932.804	390.35
933.102	387.79
933.401	369.92
933.699	359.71
933.997	349.49
934.295	249.91
934.593	377.58
934.891	398.01
935.189	433.76
935.487	362.26
935.784	339.28
936.082	311.19
936.38	392.9
936.677	375.03
936.975	405.67
937.273	382.69
937.57	349.49
937.868	380.13
938.165	400.56
938.463	364.81
938.76	375.03
939.057	398.01
939.354	398.01
939.652	346.94
939.949	431.2
940.246	303.53
940.543	321.41
940.84	367.37
941.137	341.83
941.434	331.62
941.731	395.45
942.028	380.13
942.324	362.26
942.621	334.17
942.918	415.88
943.214	390.35
943.511	433.76
943.807	334.17
944.104	380.13
944.4	390.35
944.697	326.51
944.993	349.49
945.29	369.92
945.586	352.05
945.882	367.37
946.178	387.79
946.474	392.9
946.77	326.51
947.066	359.71
947.362	392.9
947.658	372.47
947.954	344.39
948.25	316.3
948.546	295.87
948.842	323.96
949.137	354.6
949.433	359.71
949.729	316.3
950.024	331.62
950.32	354.6
950.615	405.67
950.91	398.01
951.206	387.79
951.501	375.03
951.796	344.39
952.092	380.13
952.387	403.11
952.682	403.11
952.977	436.31
953.272	375.03
953.567	372.47
953.862	303.53
954.157	359.71
954.452	369.92
954.747	410.77
955.041	410.77
955.336	385.24
955.631	316.3
955.925	331.62
956.22	346.94
956.514	331.62
956.809	461.84
957.103	438.86
957.398	410.77
957.692	377.58
957.986	364.81
958.281	398.01
958.575	341.83
958.869	362.26
959.163	311.19
959.457	339.28
959.751	392.9
960.045	405.67
960.339	405.67
960.633	359.71
960.927	367.37
961.221	339.28
961.514	405.67
961.808	359.71
962.102	290.77
962.395	398.01
962.689	387.79
962.982	329.07
963.276	306.09
963.569	364.81
963.862	438.86
964.156	392.9
964.449	367.37
964.742	372.47
965.035	420.99
965.328	372.47
965.622	359.71
965.915	377.58
966.208	344.39
966.5	341.83
966.793	339.28
967.086	408.22
967.379	336.73
967.672	298.43
967.964	339.28
968.257	382.69
968.55	398.01
968.842	408.22
969.135	392.9
969.427	326.51
969.72	313.75
970.012	336.73
970.304	413.33
970.597	339.28
970.889	357.15
971.181	359.71
971.473	387.79
971.765	380.13
972.057	295.87
972.349	321.41
972.641	341.83
972.933	387.79
973.225	433.76
973.517	387.79
973.809	298.43
974.1	334.17
974.392	300.98
974.684	318.85
974.975	352.05
975.267	352.05
975.558	364.81
975.85	344.39
976.141	357.15
976.432	390.35
976.724	308.64
977.015	339.28
977.306	385.24
977.597	408.22
977.888	362.26
978.179	311.19
978.47	331.62
978.761	410.77
979.052	367.37
979.343	415.88
979.634	385.24
979.925	410.77
980.215	362.26
980.506	331.62
980.797	369.92
981.087	313.75
981.378	331.62
981.668	344.39
981.959	410.77
982.249	341.83
982.54	441.42
982.83	400.56
983.12	369.92
983.41	382.69
983.701	369.92
983.991	362.26
984.281	387.79
984.571	372.47
984.861	329.07
985.151	326.51
985.441	339.28
985.73	321.41
986.02	359.71
986.31	382.69
986.6	382.69
986.889	392.9
987.179	313.75
987.469	423.54
987.758	415.88
988.048	308.64
988.337	369.92
988.626	395.45
988.916	349.49
989.205	364.81
989.494	408.22
989.783	326.51
990.073	364.81
990.362	357.15
990.651	410.77
990.94	398.01
991.229	377.58
991.518	375.03
991.806	346.94
992.095	418.43
992.384	352.05
992.673	326.51
992.961	364.81
993.25	377.58
993.539	403.11
993.827	364.81
994.116	372.47
994.404	369.92
994.692	336.73
994.981	293.32
995.269	405.67
995.557	390.35
995.846	346.94
996.134	403.11
996.422	354.6
996.71	456.74
996.998	331.62
997.286	367.37
997.574	375.03
997.862	359.71
998.15	415.88
998.437	385.24
998.725	352.05
999.013	385.24
999.3	387.79
999.588	339.28
999.876	329.07
1000.163	334.17
1000.45	369.92
1000.738	316.3
1001.025	408.22
1001.313	372.47
1001.6	369.92
1001.887	321.41
1002.174	418.43
1002.461	372.47
1002.748	359.71
1003.036	336.73
1003.322	313.75
1003.609	377.58
1003.896	415.88
1004.183	367.37
1004.47	377.58
1004.757	385.24
1005.043	428.65
1005.33	385.24
1005.617	387.79
1005.903	357.15
1006.19	390.35
1006.476	316.3
1006.763	364.81
1007.049	382.69
1007.335	408.22
1007.622	408.22
1007.908	321.41
1008.194	329.07
1008.48	410.77
1008.766	377.58
1009.053	367.37
1009.339	344.39
1009.625	403.11
1009.91	413.33
1010.196	377.58
1010.482	285.66
1010.768	344.39
1011.054	334.17
1011.339	405.67
1011.625	418.43
1011.911	326.51
1012.196	375.03
1012.482	400.56
1012.767	446.52
1013.052	336.73
1013.338	377.58
1013.623	446.52
1013.908	387.79
1014.194	364.81
1014.479	413.33
1014.764	331.62
1015.049	410.77
1015.334	352.05
1015.619	441.42
1015.904	400.56
1016.189	339.28
1016.474	367.37
1016.758	369.92
1017.043	413.33
1017.328	367.37
1017.613	408.22
1017.897	418.43
1018.182	418.43
1018.466	375.03
1018.751	352.05
1019.035	346.94
1019.32	438.86
1019.604	382.69
1019.888	385.24
1020.172	385.24
1020.457	385.24
