Data from 2025-12-03_xpw_interference_micrometer_634_FLMS141361__51__101.txt Node

Date: Wed Dec 03 15:48:41 MST 2025
User: james
Spectrometer: FLMS14136
Trigger mode: 0
Integration Time (sec): 1.000000E-1
Scans to average: 1
Electric dark correction enabled: true
Nonlinearity correction enabled: false
Boxcar width: 0
XAxis mode: Wavelengths
Number of Pixels in Spectrum: 2048
>>>>>Begin Spectral Data<<<<<
339.315	7.02
339.697	7.02
340.079	7.02
340.461	-118.09
340.843	-84.9
341.225	-54.26
341.607	-82.35
341.989	-95.11
342.371	-141.07
342.752	-100.22
343.134	-74.69
343.516	9.58
343.897	-8.3
344.279	60.64
344.661	40.22
345.042	17.24
345.423	-0.64
345.805	75.96
346.186	106.6
346.567	172.99
346.949	73.41
347.33	193.42
347.711	180.65
348.092	282.79
348.473	280.23
348.854	239.38
349.235	213.85
349.616	282.79
349.997	349.17
350.378	272.57
350.758	410.46
351.139	331.3
351.52	405.35
351.9	402.8
352.281	415.56
352.661	346.62
353.042	435.99
353.422	390.03
353.803	425.78
354.183	420.67
354.563	382.37
354.943	354.28
355.324	387.48
355.704	390.03
356.084	407.9
356.464	390.03
356.844	369.6
357.224	382.37
357.603	438.54
357.983	443.65
358.363	479.4
358.743	458.97
359.122	441.1
359.502	387.48
359.882	354.28
360.261	346.62
360.641	372.15
361.02	407.9
361.399	321.09
361.779	349.17
362.158	346.62
362.537	349.17
362.916	438.54
363.296	333.85
363.675	351.73
364.054	377.26
364.433	438.54
364.812	443.65
365.19	323.64
365.569	420.67
365.948	341.51
366.327	397.69
366.705	410.46
367.084	395.14
367.463	387.48
367.841	395.14
368.22	377.26
368.598	413.01
368.977	410.46
369.355	356.83
369.733	349.17
370.111	397.69
370.49	374.71
370.868	367.05
371.246	331.3
371.624	387.48
372.002	397.69
372.38	344.07
372.758	397.69
373.136	374.71
373.513	407.9
373.891	413.01
374.269	395.14
374.646	367.05
375.024	374.71
375.402	382.37
375.779	364.49
376.157	400.24
376.534	407.9
376.911	379.81
377.289	400.24
377.666	354.28
378.043	346.62
378.42	392.58
378.797	407.9
379.175	443.65
379.552	359.39
379.929	346.62
380.305	395.14
380.682	372.15
381.059	333.85
381.436	469.18
381.813	428.33
382.189	410.46
382.566	415.56
382.943	374.71
383.319	341.51
383.696	310.87
384.072	397.69
384.448	400.24
384.825	400.24
385.201	379.81
385.577	354.28
385.953	458.97
386.329	433.44
386.706	377.26
387.082	397.69
387.458	410.46
387.834	418.12
388.209	374.71
388.585	361.94
388.961	387.48
389.337	346.62
389.713	397.69
390.088	369.6
390.464	400.24
390.839	397.69
391.215	407.9
391.59	377.26
391.966	423.22
392.341	428.33
392.716	367.05
393.092	346.62
393.467	423.22
393.842	471.74
394.217	443.65
394.592	428.33
394.967	407.9
395.342	425.78
395.717	387.48
396.092	435.99
396.467	418.12
396.841	407.9
397.216	456.42
397.591	418.12
397.965	471.74
398.34	402.8
398.714	382.37
399.089	405.35
399.463	341.51
399.838	392.58
400.212	390.03
400.586	405.35
400.961	405.35
401.335	400.24
401.709	471.74
402.083	433.44
402.457	390.03
402.831	410.46
403.205	402.8
403.579	372.15
403.953	456.42
404.326	397.69
404.7	377.26
405.074	435.99
405.447	374.71
405.821	425.78
406.195	464.08
406.568	402.8
406.942	481.95
407.315	420.67
407.688	415.56
408.062	425.78
408.435	400.24
408.808	351.73
409.181	433.44
409.554	384.92
409.927	390.03
410.3	402.8
410.673	425.78
411.046	425.78
411.419	405.35
411.792	377.26
412.165	359.39
412.537	420.67
412.91	502.38
413.283	415.56
413.655	407.9
414.028	407.9
414.4	392.58
414.773	331.3
415.145	451.31
415.517	377.26
415.889	413.01
416.262	400.24
416.634	374.71
417.006	402.8
417.378	474.29
417.75	461.52
418.122	377.26
418.494	395.14
418.866	364.49
419.238	400.24
419.609	382.37
419.981	458.97
420.353	390.03
420.725	400.24
421.096	423.22
421.468	410.46
421.839	443.65
422.211	464.08
422.582	443.65
422.953	410.46
423.325	464.08
423.696	400.24
424.067	384.92
424.438	446.2
424.809	448.76
425.18	405.35
425.551	448.76
425.922	451.31
426.293	400.24
426.664	392.58
427.035	420.67
427.406	372.15
427.776	392.58
428.147	407.9
428.518	425.78
428.888	377.26
429.259	359.39
429.629	425.78
429.999	387.48
430.37	395.14
430.74	377.26
431.11	387.48
431.481	466.63
431.851	397.69
432.221	420.67
432.591	382.37
432.961	351.73
433.331	395.14
433.701	418.12
434.071	372.15
434.441	400.24
434.81	400.24
435.18	435.99
435.55	367.05
435.919	415.56
436.289	392.58
436.658	433.44
437.028	410.46
437.397	504.93
437.767	446.2
438.136	425.78
438.505	338.96
438.875	285.34
439.244	384.92
439.613	395.14
439.982	446.2
440.351	525.36
440.72	494.72
441.089	430.88
441.458	441.1
441.827	481.95
442.196	476.84
442.564	594.3
442.933	453.86
443.302	372.15
443.67	433.44
444.039	420.67
444.407	413.01
444.776	451.31
445.144	430.88
445.513	456.42
445.881	464.08
446.249	471.74
446.617	489.61
446.986	479.4
447.354	446.2
447.722	379.81
448.09	448.76
448.458	453.86
448.826	464.08
449.194	481.95
449.561	428.33
449.929	418.12
450.297	410.46
450.665	415.56
451.032	397.69
451.4	423.22
451.767	428.33
452.135	458.97
452.502	425.78
452.87	397.69
453.237	384.92
453.604	433.44
453.971	469.18
454.339	435.99
454.706	458.97
455.073	441.1
455.44	461.52
455.807	402.8
456.174	405.35
456.541	474.29
456.908	407.9
457.274	423.22
457.641	430.88
458.008	400.24
458.374	435.99
458.741	458.97
459.108	466.63
459.474	397.69
459.841	377.26
460.207	415.56
460.573	433.44
460.94	415.56
461.306	407.9
461.672	464.08
462.038	435.99
462.404	425.78
462.771	390.03
463.137	494.72
463.503	420.67
463.868	451.31
464.234	420.67
464.6	428.33
464.966	420.67
465.332	402.8
465.697	458.97
466.063	413.01
466.429	453.86
466.794	484.5
467.16	471.74
467.525	397.69
467.89	415.56
468.256	425.78
468.621	451.31
468.986	346.62
469.351	448.76
469.717	466.63
470.082	435.99
470.447	377.26
470.812	377.26
471.177	423.22
471.542	461.52
471.906	435.99
472.271	356.83
472.636	413.01
473.001	415.56
473.365	438.54
473.73	323.64
474.094	438.54
474.459	425.78
474.823	400.24
475.188	377.26
475.552	441.1
475.917	382.37
476.281	471.74
476.645	433.44
477.009	448.76
477.373	438.54
477.737	441.1
478.101	458.97
478.465	456.42
478.829	418.12
479.193	464.08
479.557	413.01
479.921	428.33
480.284	420.67
480.648	438.54
481.012	415.56
481.375	446.2
481.739	413.01
482.102	407.9
482.466	367.05
482.829	471.74
483.193	507.48
483.556	430.88
483.919	367.05
484.282	392.58
484.645	438.54
485.009	410.46
485.372	372.15
485.735	418.12
486.098	446.2
486.46	458.97
486.823	433.44
487.186	461.52
487.549	423.22
487.912	435.99
488.274	438.54
488.637	430.88
488.999	469.18
489.362	430.88
489.724	502.38
490.087	479.4
490.449	428.33
490.811	377.26
491.174	489.61
491.536	453.86
491.898	351.73
492.26	443.65
492.622	453.86
492.984	443.65
493.346	435.99
493.708	425.78
494.07	379.81
494.432	420.67
494.794	390.03
495.155	390.03
495.517	390.03
495.879	464.08
496.24	351.73
496.602	469.18
496.963	397.69
497.325	361.94
497.686	456.42
498.048	456.42
498.409	423.22
498.77	453.86
499.131	456.42
499.492	420.67
499.854	430.88
500.215	430.88
500.576	456.42
500.937	435.99
501.298	433.44
501.658	453.86
502.019	469.18
502.38	461.52
502.741	369.6
503.101	415.56
503.462	476.84
503.823	499.82
504.183	367.05
504.543	423.22
504.904	441.1
505.264	384.92
505.625	346.62
505.985	489.61
506.345	435.99
506.705	413.01
507.065	323.64
507.426	428.33
507.786	428.33
508.146	471.74
508.505	410.46
508.865	441.1
509.225	458.97
509.585	413.01
509.945	346.62
510.304	367.05
510.664	428.33
511.024	489.61
511.383	430.88
511.743	433.44
512.102	407.9
512.462	402.8
512.821	402.8
513.18	407.9
513.539	420.67
513.899	413.01
514.258	446.2
514.617	420.67
514.976	387.48
515.335	458.97
515.694	390.03
516.053	461.52
516.412	361.94
516.771	464.08
517.129	413.01
517.488	448.76
517.847	423.22
518.205	425.78
518.564	471.74
518.922	435.99
519.281	464.08
519.639	359.39
519.998	435.99
520.356	520.25
520.714	497.27
521.073	395.14
521.431	397.69
521.789	476.84
522.147	438.54
522.505	497.27
522.863	430.88
523.221	448.76
523.579	435.99
523.937	433.44
524.295	430.88
524.652	428.33
525.01	407.9
525.368	400.24
525.725	415.56
526.083	474.29
526.44	443.65
526.798	464.08
527.155	464.08
527.513	405.35
527.87	446.2
528.227	441.1
528.584	359.39
528.942	466.63
529.299	456.42
529.656	395.14
530.013	428.33
530.37	458.97
530.727	441.1
531.083	415.56
531.44	456.42
531.797	377.26
532.154	423.22
532.511	387.48
532.867	410.46
533.224	395.14
533.58	469.18
533.937	410.46
534.293	438.54
534.65	423.22
535.006	384.92
535.362	361.94
535.718	433.44
536.075	377.26
536.431	328.75
536.787	364.49
537.143	430.88
537.499	451.31
537.855	438.54
538.211	438.54
538.567	410.46
538.923	489.61
539.278	418.12
539.634	413.01
539.99	423.22
540.345	458.97
540.701	423.22
541.056	443.65
541.412	384.92
541.767	425.78
542.123	428.33
542.478	451.31
542.833	369.6
543.188	379.81
543.544	425.78
543.899	458.97
544.254	469.18
544.609	433.44
544.964	433.44
545.319	435.99
545.674	428.33
546.029	443.65
546.383	425.78
546.738	405.35
547.093	466.63
547.447	407.9
547.802	410.46
548.157	405.35
548.511	405.35
548.866	415.56
549.22	448.76
549.574	331.3
549.929	410.46
550.283	430.88
550.637	410.46
550.991	423.22
551.345	441.1
551.699	392.58
552.053	413.01
552.407	433.44
552.761	471.74
553.115	458.97
553.469	451.31
553.823	456.42
554.176	456.42
554.53	489.61
554.884	453.86
555.237	714.31
555.591	502.38
555.944	466.63
556.298	458.97
556.651	461.52
557.005	428.33
557.358	494.72
557.711	451.31
558.064	392.58
558.417	479.4
558.771	530.46
559.124	507.48
559.477	458.97
559.83	456.42
560.182	438.54
560.535	438.54
560.888	481.95
561.241	397.69
561.594	359.39
561.946	367.05
562.299	464.08
562.651	423.22
563.004	397.69
563.356	494.72
563.709	413.01
564.061	446.2
564.413	395.14
564.766	458.97
565.118	400.24
565.47	415.56
565.822	420.67
566.174	390.03
566.526	423.22
566.878	392.58
567.23	405.35
567.582	397.69
567.934	438.54
568.286	395.14
568.638	400.24
568.989	446.2
569.341	413.01
569.693	402.8
570.044	451.31
570.396	448.76
570.747	466.63
571.098	384.92
571.45	435.99
571.801	479.4
572.152	402.8
572.504	410.46
572.855	430.88
573.206	435.99
573.557	402.8
573.908	384.92
574.259	443.65
574.61	407.9
574.961	481.95
575.311	492.16
575.662	410.46
576.013	435.99
576.364	402.8
576.714	438.54
577.065	423.22
577.415	397.69
577.766	451.31
578.116	481.95
578.467	413.01
578.817	410.46
579.167	428.33
579.518	428.33
579.868	443.65
580.218	441.1
580.568	423.22
580.918	474.29
581.268	407.9
581.618	390.03
581.968	392.58
582.318	451.31
582.668	430.88
583.017	407.9
583.367	443.65
583.717	400.24
584.066	438.54
584.416	504.93
584.765	433.44
585.115	420.67
585.464	310.87
585.814	428.33
586.163	451.31
586.512	425.78
586.862	464.08
587.211	461.52
587.56	418.12
587.909	413.01
588.258	430.88
588.607	384.92
588.956	484.5
589.305	428.33
589.654	446.2
590.002	453.86
590.351	395.14
590.7	359.39
591.048	418.12
591.397	446.2
591.746	456.42
592.094	497.27
592.443	469.18
592.791	423.22
593.139	405.35
593.488	430.88
593.836	446.2
594.184	392.58
594.532	471.74
594.88	415.56
595.228	397.69
595.576	364.49
595.924	384.92
596.272	407.9
596.62	415.56
596.968	413.01
597.316	466.63
597.664	415.56
598.011	428.33
598.359	461.52
598.706	461.52
599.054	395.14
599.402	379.81
599.749	387.48
600.096	499.82
600.444	433.44
600.791	435.99
601.138	464.08
601.485	443.65
601.833	372.15
602.18	435.99
602.527	405.35
602.874	492.16
603.221	471.74
603.568	395.14
603.914	425.78
604.261	313.43
604.608	423.22
604.955	407.9
605.301	476.84
605.648	481.95
605.995	420.67
606.341	461.52
606.688	428.33
607.034	456.42
607.38	392.58
607.727	448.76
608.073	448.76
608.419	530.46
608.765	461.52
609.112	405.35
609.458	361.94
609.804	392.58
610.15	443.65
610.496	418.12
610.842	379.81
611.187	446.2
611.533	441.1
611.879	410.46
612.225	453.86
612.57	469.18
612.916	476.84
613.261	428.33
613.607	453.86
613.952	461.52
614.298	443.65
614.643	451.31
614.989	407.9
615.334	384.92
615.679	448.76
616.024	430.88
616.369	361.94
616.714	397.69
617.059	420.67
617.404	428.33
617.749	423.22
618.094	400.24
618.439	367.05
618.784	402.8
619.129	474.29
619.473	384.92
619.818	413.01
620.163	443.65
620.507	420.67
620.852	451.31
621.196	400.24
621.54	390.03
621.885	430.88
622.229	448.76
622.573	413.01
622.918	453.86
623.262	484.5
623.606	423.22
623.95	443.65
624.294	456.42
624.638	384.92
624.982	410.46
625.326	430.88
625.67	456.42
626.013	446.2
626.357	395.14
626.701	428.33
627.044	418.12
627.388	425.78
627.731	425.78
628.075	430.88
628.418	479.4
628.762	438.54
629.105	487.06
629.448	405.35
629.792	382.37
630.135	448.76
630.478	407.9
630.821	359.39
631.164	425.78
631.507	425.78
631.85	443.65
632.193	413.01
632.536	448.76
632.879	471.74
633.221	395.14
633.564	461.52
633.907	451.31
634.249	448.76
634.592	418.12
634.935	364.49
635.277	377.26
635.619	413.01
635.962	407.9
636.304	469.18
636.646	441.1
636.989	428.33
637.331	430.88
637.673	428.33
638.015	407.9
638.357	367.05
638.699	407.9
639.041	407.9
639.383	438.54
639.725	443.65
640.067	520.25
640.408	407.9
640.75	402.8
641.092	392.58
641.433	405.35
641.775	438.54
642.116	372.15
642.458	390.03
642.799	415.56
643.141	390.03
643.482	418.12
643.823	415.56
644.164	479.4
644.506	476.84
644.847	443.65
645.188	392.58
645.529	446.2
645.87	413.01
646.211	425.78
646.552	405.35
646.893	456.42
647.233	359.39
647.574	405.35
647.915	374.71
648.255	425.78
648.596	410.46
648.937	407.9
649.277	410.46
649.618	435.99
649.958	451.31
650.298	438.54
650.639	367.05
650.979	433.44
651.319	374.71
651.659	443.65
651.999	315.98
652.339	392.58
652.679	441.1
653.019	435.99
653.359	456.42
653.699	433.44
654.039	405.35
654.379	382.37
654.719	461.52
655.058	395.14
655.398	466.63
655.737	492.16
656.077	471.74
656.416	469.18
656.756	430.88
657.095	390.03
657.435	433.44
657.774	474.29
658.113	407.9
658.452	397.69
658.792	387.48
659.131	441.1
659.47	430.88
659.809	402.8
660.148	397.69
660.487	356.83
660.826	413.01
661.164	397.69
661.503	405.35
661.842	423.22
662.181	418.12
662.519	425.78
662.858	392.58
663.196	405.35
663.535	420.67
663.873	418.12
664.212	384.92
664.55	405.35
664.888	451.31
665.226	448.76
665.565	402.8
665.903	686.22
666.241	502.38
666.579	464.08
666.917	402.8
667.255	400.24
667.593	443.65
667.931	413.01
668.268	456.42
668.606	476.84
668.944	438.54
669.282	374.71
669.619	395.14
669.957	395.14
670.294	415.56
670.632	428.33
670.969	390.03
671.307	481.95
671.644	456.42
671.981	471.74
672.318	413.01
672.656	428.33
672.993	402.8
673.33	456.42
673.667	464.08
674.004	487.06
674.341	367.05
674.678	374.71
675.015	435.99
675.351	425.78
675.688	441.1
676.025	413.01
676.362	420.67
676.698	415.56
677.035	446.2
677.371	448.76
677.708	415.56
678.044	479.4
678.38	471.74
678.717	318.53
679.053	387.48
679.389	395.14
679.725	377.26
680.062	418.12
680.398	397.69
680.734	392.58
681.07	430.88
681.406	382.37
681.742	458.97
682.077	423.22
682.413	466.63
682.749	469.18
683.085	287.89
683.42	453.86
683.756	410.46
684.091	410.46
684.427	423.22
684.762	402.8
685.098	415.56
685.433	418.12
685.768	361.94
686.104	410.46
686.439	435.99
686.774	430.88
687.109	402.8
687.444	476.84
687.779	469.18
688.114	390.03
688.449	413.01
688.784	471.74
689.119	420.67
689.454	469.18
689.789	474.29
690.123	456.42
690.458	428.33
690.792	433.44
691.127	474.29
691.461	446.2
691.796	415.56
692.13	499.82
692.465	420.67
692.799	451.31
693.133	415.56
693.467	471.74
693.802	367.05
694.136	407.9
694.47	438.54
694.804	446.2
695.138	423.22
695.472	448.76
695.806	423.22
696.139	392.58
696.473	446.2
696.807	481.95
697.141	438.54
697.474	349.17
697.808	456.42
698.141	395.14
698.475	413.01
698.808	418.12
699.142	494.72
699.475	461.52
699.808	410.46
700.142	451.31
700.475	387.48
700.808	384.92
701.141	474.29
701.474	397.69
701.807	433.44
702.14	377.26
702.473	400.24
702.806	384.92
703.139	372.15
703.472	384.92
703.804	326.19
704.137	397.69
704.47	420.67
704.802	420.67
705.135	461.52
705.467	397.69
705.8	448.76
706.132	438.54
706.464	464.08
706.797	438.54
707.129	392.58
707.461	377.26
707.793	423.22
708.125	410.46
708.457	458.97
708.789	435.99
709.121	423.22
709.453	420.67
709.785	423.22
710.117	453.86
710.449	379.81
710.781	390.03
711.112	356.83
711.444	430.88
711.775	430.88
712.107	372.15
712.438	453.86
712.77	382.37
713.101	464.08
713.433	392.58
713.764	390.03
714.095	405.35
714.426	410.46
714.757	369.6
715.089	441.1
715.42	428.33
715.751	446.2
716.082	423.22
716.412	367.05
716.743	413.01
717.074	402.8
717.405	435.99
717.736	395.14
718.066	428.33
718.397	573.87
718.727	395.14
719.058	466.63
719.388	451.31
719.719	387.48
720.049	407.9
720.38	456.42
720.71	405.35
721.04	458.97
721.37	392.58
721.7	448.76
722.031	435.99
722.361	430.88
722.691	453.86
723.021	338.96
723.35	407.9
723.68	466.63
724.01	382.37
724.34	395.14
724.67	458.97
724.999	433.44
725.329	481.95
725.658	420.67
725.988	476.84
726.317	397.69
726.647	425.78
726.976	428.33
727.306	418.12
727.635	451.31
727.964	458.97
728.293	384.92
728.622	443.65
728.952	428.33
729.281	387.48
729.61	418.12
729.939	420.67
730.267	430.88
730.596	443.65
730.925	525.36
731.254	489.61
731.583	438.54
731.911	387.48
732.24	466.63
732.568	430.88
732.897	443.65
733.225	413.01
733.554	423.22
733.882	359.39
734.21	407.9
734.539	395.14
734.867	420.67
735.195	374.71
735.523	428.33
735.851	428.33
736.179	405.35
736.507	397.69
736.835	461.52
737.163	423.22
737.491	464.08
737.819	420.67
738.147	356.83
738.474	361.94
738.802	430.88
739.13	430.88
739.457	448.76
739.785	392.58
740.112	400.24
740.44	413.01
740.767	438.54
741.094	407.9
741.422	410.46
741.749	392.58
742.076	364.49
742.403	407.9
742.73	397.69
743.057	443.65
743.384	405.35
743.711	344.07
744.038	433.44
744.365	474.29
744.692	410.46
745.018	446.2
745.345	379.81
745.672	476.84
745.998	405.35
746.325	453.86
746.651	390.03
746.978	418.12
747.304	405.35
747.631	400.24
747.957	471.74
748.283	433.44
748.61	438.54
748.936	349.17
749.262	469.18
749.588	392.58
749.914	430.88
750.24	392.58
750.566	407.9
750.892	418.12
751.218	384.92
751.543	423.22
751.869	481.95
752.195	433.44
752.521	448.76
752.846	400.24
753.172	446.2
753.497	458.97
753.823	400.24
754.148	407.9
754.473	413.01
754.799	395.14
755.124	453.86
755.449	474.29
755.774	494.72
756.1	446.2
756.425	492.16
756.75	441.1
757.075	415.56
757.4	594.3
757.724	461.52
758.049	443.65
758.374	443.65
758.699	420.67
759.024	433.44
759.348	443.65
759.673	451.31
759.997	456.42
760.322	474.29
760.646	517.7
760.971	497.27
761.295	448.76
761.619	471.74
761.944	420.67
762.268	441.1
762.592	497.27
762.916	566.21
763.24	647.92
763.564	632.6
763.888	622.39
764.212	650.47
764.536	589.19
764.86	578.98
765.184	556
765.508	591.75
765.831	599.41
766.155	997.73
766.478	956.88
766.802	936.45
767.126	1138.17
767.449	1334.78
767.772	1503.3
768.096	1579.9
768.419	1523.73
768.742	1523.73
769.066	1472.66
769.389	1209.66
769.712	1053.91
770.035	939
770.358	755.16
770.681	908.36
771.004	1053.91
771.327	1291.37
771.65	1715.23
771.972	2133.99
772.295	2608.91
772.618	2705.94
772.941	3091.5
773.263	3129.8
773.586	2900
773.908	2948.51
774.231	2700.84
774.553	2172.29
774.875	1779.07
775.198	1465
775.52	1227.54
775.842	1253.07
776.164	1615.65
776.487	2195.27
776.809	2734.03
777.131	3364.71
777.453	3862.62
777.775	4222.65
778.096	4672.04
778.418	4955.47
778.74	4327.34
779.062	3722.19
779.384	3346.84
779.705	3020.01
780.027	2634.45
780.348	1978.23
780.67	1620.76
780.991	1498.19
781.313	1896.52
781.634	2552.74
781.955	3443.87
782.277	4460.11
782.598	5854.26
782.919	6579.42
783.24	7148.82
783.561	7480.76
783.882	7411.82
784.203	7118.18
784.524	6081.51
784.845	4978.45
785.166	3673.67
785.487	2754.46
785.807	2077.81
786.128	1610.54
786.449	1513.51
786.769	1794.39
787.09	2596.15
787.41	3888.16
787.731	5655.09
788.051	7393.94
788.372	8617.01
788.692	10570.35
789.012	11624.89
789.332	11517.65
789.653	11269.97
789.973	10292.03
790.293	8190.6
790.613	6035.55
790.933	4260.95
791.253	3009.79
791.573	2059.94
791.893	1689.7
792.212	1541.6
792.532	1883.75
792.852	2682.96
793.171	3765.59
793.491	4812.48
793.811	5887.45
794.13	6599.84
794.45	7018.6
794.769	6809.22
795.088	7021.15
795.408	6656.02
795.727	6035.55
796.046	5029.52
796.365	3990.29
796.684	2933.19
797.004	2126.33
797.323	1531.39
797.642	1401.17
797.96	1431.81
798.279	2001.21
798.598	2675.3
798.917	3594.52
799.236	4636.3
799.554	5192.93
799.873	5652.54
800.192	6852.63
800.51	7414.37
800.829	7296.92
801.147	6712.19
801.466	5900.22
801.784	5121.44
802.102	4197.12
802.421	3362.16
802.739	2665.09
803.057	2019.08
803.375	1477.77
803.693	1301.58
804.011	1367.97
804.329	1745.87
804.647	2182.5
804.965	2958.73
805.283	3755.38
805.601	4365.64
805.918	5295.07
806.236	5532.53
806.554	5629.56
806.871	5935.97
807.189	5971.71
807.507	5803.19
807.824	4991.22
808.141	4151.15
808.459	3134.91
808.776	2049.72
809.093	1495.64
809.411	1094.76
809.728	829.21
810.045	847.08
810.362	972.2
810.679	1207.11
810.996	1705.02
811.313	2154.41
811.63	2649.77
811.947	3032.77
812.264	3339.18
812.58	3507.7
812.897	3354.5
813.214	3346.84
813.53	3155.34
813.847	3063.42
814.163	2785.1
814.48	2325.49
814.796	1860.77
815.113	1424.15
815.429	1097.31
815.745	783.25
816.061	711.75
816.378	698.99
816.694	757.71
817.01	910.92
817.326	1232.64
817.642	1518.62
817.958	1784.17
818.274	1853.11
818.59	1888.86
818.905	2008.87
819.221	2202.93
819.537	2335.7
819.852	2218.25
820.168	2001.21
820.484	1819.92
820.799	1564.58
821.115	1396.06
821.43	1112.63
821.745	954.33
822.061	770.48
822.376	637.71
822.691	522.8
823.006	566.21
823.322	609.62
823.637	716.86
823.952	859.85
824.267	882.83
824.582	1033.48
824.897	1176.47
825.211	1332.22
825.526	1306.69
825.841	1375.63
826.156	1413.93
826.47	1398.61
826.785	1390.95
827.1	1265.84
827.414	1115.19
827.729	1007.95
828.043	816.44
828.357	647.92
828.672	489.61
828.986	494.72
829.3	512.59
829.614	510.04
829.929	558.55
830.243	596.85
830.557	660.69
830.871	714.31
831.185	678.56
831.499	752.61
831.812	824.1
832.126	824.1
832.44	1015.61
832.754	1074.33
833.067	936.45
833.381	946.66
833.695	951.77
834.008	890.49
834.322	790.91
834.635	716.86
834.948	630.05
835.262	530.46
835.575	581.53
835.888	502.38
836.201	479.4
836.515	405.35
836.828	484.5
837.141	479.4
837.454	530.46
837.767	489.61
838.08	517.7
838.392	538.12
838.705	673.45
839.018	627.49
839.331	586.64
839.643	665.79
839.956	589.19
840.269	556
840.581	548.34
840.894	512.59
841.206	525.36
841.519	681.11
841.831	584.09
842.143	471.74
842.455	464.08
842.768	451.31
843.08	395.14
843.392	356.83
843.704	356.83
844.016	395.14
844.328	428.33
844.64	492.16
844.952	479.4
845.263	561.1
845.575	466.63
845.887	515.14
846.199	494.72
846.51	484.5
846.822	453.86
847.133	497.27
847.445	441.1
847.756	492.16
848.068	456.42
848.379	507.48
848.69	456.42
849.002	469.18
849.313	443.65
849.624	395.14
849.935	461.52
850.246	492.16
850.557	413.01
850.868	456.42
851.179	466.63
851.49	443.65
851.801	346.62
852.112	425.78
852.422	471.74
852.733	502.38
853.044	430.88
853.354	413.01
853.665	384.92
853.975	423.22
854.286	469.18
854.596	438.54
854.906	405.35
855.217	400.24
855.527	410.46
855.837	438.54
856.147	433.44
856.458	415.56
856.768	372.15
857.078	407.9
857.388	423.22
857.698	390.03
858.007	369.6
858.317	435.99
858.627	489.61
858.937	364.49
859.246	387.48
859.556	402.8
859.866	430.88
860.175	407.9
860.485	420.67
860.794	367.05
861.104	359.39
861.413	428.33
861.722	392.58
862.032	443.65
862.341	361.94
862.65	346.62
862.959	367.05
863.268	461.52
863.577	471.74
863.886	420.67
864.195	392.58
864.504	418.12
864.813	423.22
865.122	372.15
865.43	433.44
865.739	410.46
866.048	397.69
866.356	390.03
866.665	390.03
866.973	415.56
867.282	387.48
867.59	382.37
867.899	413.01
868.207	372.15
868.515	430.88
868.823	428.33
869.132	461.52
869.44	400.24
869.748	430.88
870.056	428.33
870.364	423.22
870.672	433.44
870.98	448.76
871.288	474.29
871.595	397.69
871.903	415.56
872.211	400.24
872.518	438.54
872.826	410.46
873.134	387.48
873.441	446.2
873.749	367.05
874.056	464.08
874.363	479.4
874.671	423.22
874.978	400.24
875.285	397.69
875.592	461.52
875.9	438.54
876.207	384.92
876.514	423.22
876.821	474.29
877.128	458.97
877.435	397.69
877.741	395.14
878.048	395.14
878.355	379.81
878.662	387.48
878.968	397.69
879.275	476.84
879.582	390.03
879.888	464.08
880.195	469.18
880.501	423.22
880.807	379.81
881.114	428.33
881.42	390.03
881.726	407.9
882.032	344.07
882.339	407.9
882.645	443.65
882.951	428.33
883.257	428.33
883.563	430.88
883.869	367.05
884.174	400.24
884.48	433.44
884.786	397.69
885.092	392.58
885.397	438.54
885.703	397.69
886.009	430.88
886.314	392.58
886.62	400.24
886.925	377.26
887.231	418.12
887.536	387.48
887.841	354.28
888.146	397.69
888.452	443.65
888.757	428.33
889.062	392.58
889.367	410.46
889.672	458.97
889.977	374.71
890.282	407.9
890.587	446.2
890.892	433.44
891.196	397.69
891.501	374.71
891.806	418.12
892.11	441.1
892.415	405.35
892.72	438.54
893.024	410.46
893.328	402.8
893.633	494.72
893.937	400.24
894.242	402.8
894.546	438.54
894.85	446.2
895.154	481.95
895.458	387.48
895.762	369.6
896.066	356.83
896.37	405.35
896.674	413.01
896.978	443.65
897.282	448.76
897.586	433.44
897.89	415.56
898.193	446.2
898.497	410.46
898.801	413.01
899.104	405.35
899.408	405.35
899.711	374.71
900.014	392.58
900.318	390.03
900.621	446.2
900.924	405.35
901.228	379.81
901.531	461.52
901.834	407.9
902.137	384.92
902.44	369.6
902.743	443.65
903.046	397.69
903.349	397.69
903.652	400.24
903.955	407.9
904.257	425.78
904.56	382.37
904.863	387.48
905.165	418.12
905.468	402.8
905.77	405.35
906.073	390.03
906.375	433.44
906.678	443.65
906.98	441.1
907.282	364.49
907.584	402.8
907.887	323.64
908.189	400.24
908.491	418.12
908.793	379.81
909.095	344.07
909.397	410.46
909.699	377.26
910.001	413.01
910.302	448.76
910.604	384.92
910.906	428.33
911.208	479.4
911.509	415.56
911.811	387.48
912.112	435.99
912.414	418.12
912.715	474.29
913.017	425.78
913.318	351.73
913.619	405.35
913.92	413.01
914.222	384.92
914.523	420.67
914.824	420.67
915.125	420.67
915.426	461.52
915.727	410.46
916.028	423.22
916.329	433.44
916.63	423.22
916.93	504.93
917.231	448.76
917.532	461.52
917.832	415.56
918.133	395.14
918.434	425.78
918.734	367.05
919.034	356.83
919.335	390.03
919.635	435.99
919.935	390.03
920.236	361.94
920.536	413.01
920.836	423.22
921.136	430.88
921.436	540.68
921.736	461.52
922.036	405.35
922.336	425.78
922.636	397.69
922.936	367.05
923.236	397.69
923.535	415.56
923.835	441.1
924.135	407.9
924.434	453.86
924.734	387.48
925.033	430.88
925.333	407.9
925.632	428.33
925.932	471.74
926.231	418.12
926.53	423.22
926.83	377.26
927.129	392.58
927.428	367.05
927.727	418.12
928.026	400.24
928.325	346.62
928.624	400.24
928.923	407.9
929.222	423.22
929.52	407.9
929.819	428.33
930.118	377.26
930.417	392.58
930.715	395.14
931.014	443.65
931.312	504.93
931.611	413.01
931.909	400.24
932.207	405.35
932.506	415.56
932.804	435.99
933.102	471.74
933.401	361.94
933.699	430.88
933.997	420.67
934.295	405.35
934.593	407.9
934.891	395.14
935.189	453.86
935.487	382.37
935.784	430.88
936.082	392.58
936.38	425.78
936.677	379.81
936.975	369.6
937.273	387.48
937.57	420.67
937.868	415.56
938.165	372.15
938.463	418.12
938.76	464.08
939.057	372.15
939.354	410.46
939.652	441.1
939.949	402.8
940.246	420.67
940.543	425.78
940.84	413.01
941.137	464.08
941.434	502.38
941.731	402.8
942.028	349.17
942.324	400.24
942.621	333.85
942.918	372.15
943.214	364.49
943.511	428.33
943.807	387.48
944.104	395.14
944.4	369.6
944.697	349.17
944.993	443.65
945.29	402.8
945.586	405.35
945.882	372.15
946.178	407.9
946.474	395.14
946.77	435.99
947.066	369.6
947.362	487.06
947.658	367.05
947.954	481.95
948.25	415.56
948.546	407.9
948.842	374.71
949.137	392.58
949.433	448.76
949.729	410.46
950.024	448.76
950.32	390.03
950.615	435.99
950.91	413.01
951.206	361.94
951.501	382.37
951.796	448.76
952.092	410.46
952.387	435.99
952.682	430.88
952.977	395.14
953.272	423.22
953.567	413.01
953.862	435.99
954.157	367.05
954.452	364.49
954.747	425.78
955.041	395.14
955.336	430.88
955.631	402.8
955.925	384.92
956.22	461.52
956.514	400.24
956.809	453.86
957.103	451.31
957.398	400.24
957.692	377.26
957.986	341.51
958.281	430.88
958.575	458.97
958.869	464.08
959.163	361.94
959.457	379.81
959.751	402.8
960.045	418.12
960.339	415.56
960.633	359.39
960.927	423.22
961.221	364.49
961.514	377.26
961.808	390.03
962.102	413.01
962.395	374.71
962.689	466.63
962.982	397.69
963.276	413.01
963.569	384.92
963.862	476.84
964.156	400.24
964.449	469.18
964.742	354.28
965.035	446.2
965.328	456.42
965.622	489.61
965.915	433.44
966.208	425.78
966.5	441.1
966.793	379.81
967.086	428.33
967.379	390.03
967.672	395.14
967.964	413.01
968.257	428.33
968.55	382.37
968.842	438.54
969.135	400.24
969.427	451.31
969.72	402.8
970.012	384.92
970.304	438.54
970.597	438.54
970.889	407.9
971.181	384.92
971.473	369.6
971.765	418.12
972.057	448.76
972.349	433.44
972.641	395.14
972.933	413.01
973.225	418.12
973.517	377.26
973.809	374.71
974.1	400.24
974.392	379.81
974.684	331.3
974.975	310.87
975.267	420.67
975.558	423.22
975.85	418.12
976.141	318.53
976.432	410.46
976.724	372.15
977.015	410.46
977.306	397.69
977.597	367.05
977.888	351.73
978.179	354.28
978.47	438.54
978.761	448.76
979.052	418.12
979.343	369.6
979.634	400.24
979.925	418.12
980.215	361.94
980.506	341.51
980.797	433.44
981.087	382.37
981.378	418.12
981.668	374.71
981.959	435.99
982.249	441.1
982.54	415.56
982.83	448.76
983.12	369.6
983.41	435.99
983.701	453.86
983.991	420.67
984.281	377.26
984.571	428.33
984.861	344.07
985.151	430.88
985.441	418.12
985.73	372.15
986.02	453.86
986.31	364.49
986.6	377.26
986.889	407.9
987.179	390.03
987.469	476.84
987.758	461.52
988.048	453.86
988.337	423.22
988.626	341.51
988.916	395.14
989.205	469.18
989.494	374.71
989.783	395.14
990.073	410.46
990.362	374.71
990.651	346.62
990.94	441.1
991.229	390.03
991.518	433.44
991.806	384.92
992.095	423.22
992.384	397.69
992.673	377.26
992.961	338.96
993.25	400.24
993.539	410.46
993.827	377.26
994.116	413.01
994.404	428.33
994.692	351.73
994.981	377.26
995.269	392.58
995.557	441.1
995.846	402.8
996.134	405.35
996.422	474.29
996.71	435.99
996.998	377.26
997.286	405.35
997.574	420.67
997.862	430.88
998.15	420.67
998.437	397.69
998.725	430.88
999.013	407.9
999.3	469.18
999.588	413.01
999.876	453.86
1000.163	413.01
1000.45	377.26
1000.738	413.01
1001.025	400.24
1001.313	430.88
1001.6	420.67
1001.887	377.26
1002.174	481.95
1002.461	433.44
1002.748	438.54
1003.036	413.01
1003.322	407.9
1003.609	413.01
1003.896	420.67
1004.183	372.15
1004.47	430.88
1004.757	392.58
1005.043	466.63
1005.33	382.37
1005.617	425.78
1005.903	367.05
1006.19	369.6
1006.476	369.6
1006.763	390.03
1007.049	384.92
1007.335	418.12
1007.622	321.09
1007.908	438.54
1008.194	402.8
1008.48	344.07
1008.766	387.48
1009.053	405.35
1009.339	367.05
1009.625	390.03
1009.91	430.88
1010.196	377.26
1010.482	430.88
1010.768	438.54
1011.054	387.48
1011.339	351.73
1011.625	377.26
1011.911	372.15
1012.196	418.12
1012.482	428.33
1012.767	410.46
1013.052	423.22
1013.338	390.03
1013.623	372.15
1013.908	407.9
1014.194	346.62
1014.479	461.52
1014.764	402.8
1015.049	425.78
1015.334	382.37
1015.619	367.05
1015.904	413.01
1016.189	410.46
1016.474	456.42
1016.758	435.99
1017.043	392.58
1017.328	405.35
1017.613	407.9
1017.897	384.92
1018.182	369.6
1018.466	430.88
1018.751	425.78
1019.035	407.9
1019.32	420.67
1019.604	413.01
1019.888	428.33
1020.172	428.33
1020.457	428.33
