Data from 2025-12-03_xpw_interference_micrometer_634_reference_FLMS141361__55__505.txt Node

Date: Wed Dec 03 15:52:24 MST 2025
User: james
Spectrometer: FLMS14136
Trigger mode: 0
Integration Time (sec): 1.000000E-1
Scans to average: 1
Electric dark correction enabled: true
Nonlinearity correction enabled: false
Boxcar width: 0
XAxis mode: Wavelengths
Number of Pixels in Spectrum: 2048
>>>>>Begin Spectral Data<<<<<
339.315	-76.6
339.697	-76.6
340.079	-76.6
340.461	-40.85
340.843	-91.92
341.225	-74.05
341.607	-140.44
341.989	-112.35
342.371	-56.17
342.752	-15.32
343.134	-20.43
343.516	-17.87
343.897	0
344.279	-48.51
344.661	28.09
345.042	-5.11
345.423	53.62
345.805	132.78
346.186	38.3
346.567	127.67
346.949	109.8
347.33	125.12
347.711	214.48
348.092	209.38
348.473	211.93
348.854	240.02
349.235	247.68
349.616	234.91
349.997	308.96
350.378	347.26
350.758	380.45
351.139	324.28
351.52	265.55
351.9	334.49
352.281	383.01
352.661	349.81
353.042	393.22
353.422	383.01
353.803	388.11
354.183	334.49
354.563	411.09
354.943	426.41
355.324	375.35
355.704	413.65
356.084	393.22
356.464	390.67
356.844	403.43
357.224	331.94
357.603	375.35
357.983	395.77
358.363	385.56
358.743	360.03
359.122	390.67
359.502	423.86
359.882	398.33
360.261	301.3
360.641	339.6
361.02	400.88
361.399	339.6
361.779	337.05
362.158	339.6
362.537	360.03
362.916	334.49
363.296	344.71
363.675	357.47
364.054	344.71
364.433	360.03
364.812	372.79
365.19	398.33
365.569	306.41
365.948	311.51
366.327	298.75
366.705	339.6
367.084	342.15
367.463	413.65
367.841	308.96
368.22	462.16
368.598	395.77
368.977	303.85
369.355	329.39
369.733	416.2
370.111	360.03
370.49	388.11
370.868	326.83
371.246	395.77
371.624	352.37
372.002	360.03
372.38	408.54
372.758	321.73
373.136	352.37
373.513	344.71
373.891	370.24
374.269	337.05
374.646	329.39
375.024	380.45
375.402	408.54
375.779	416.2
376.157	306.41
376.534	385.56
376.911	349.81
377.289	331.94
377.666	398.33
378.043	398.33
378.42	372.79
378.797	349.81
379.175	395.77
379.552	372.79
379.929	362.58
380.305	360.03
380.682	416.2
381.059	388.11
381.436	416.2
381.813	395.77
382.189	324.28
382.566	250.23
382.943	342.15
383.319	377.9
383.696	306.41
384.072	362.58
384.448	298.75
384.825	344.71
385.201	331.94
385.577	362.58
385.953	334.49
386.329	370.24
386.706	449.39
387.082	319.17
387.458	395.77
387.834	367.69
388.209	365.13
388.585	383.01
388.961	339.6
389.337	372.79
389.713	372.79
390.088	357.47
390.464	405.99
390.839	380.45
391.215	360.03
391.59	375.35
391.966	403.43
392.341	428.97
392.716	380.45
393.092	314.07
393.467	347.26
393.842	314.07
394.217	357.47
394.592	344.71
394.967	423.86
395.342	423.86
395.717	362.58
396.092	337.05
396.467	454.5
396.841	431.52
397.216	400.88
397.591	370.24
397.965	326.83
398.34	400.88
398.714	329.39
399.089	334.49
399.463	390.67
399.838	357.47
400.212	334.49
400.586	441.73
400.961	301.3
401.335	390.67
401.709	357.47
402.083	311.51
402.457	365.13
402.831	344.71
403.205	380.45
403.579	331.94
403.953	349.81
404.326	403.43
404.7	408.54
405.074	324.28
405.447	370.24
405.821	314.07
406.195	380.45
406.568	367.69
406.942	428.97
407.315	416.2
407.688	357.47
408.062	380.45
408.435	377.9
408.808	439.18
409.181	423.86
409.554	423.86
409.927	370.24
410.3	398.33
410.673	342.15
411.046	334.49
411.419	405.99
411.792	380.45
412.165	321.73
412.537	334.49
412.91	383.01
413.283	352.37
413.655	426.41
414.028	354.92
414.4	331.94
414.773	390.67
415.145	416.2
415.517	352.37
415.889	398.33
416.262	390.67
416.634	365.13
417.006	316.62
417.378	354.92
417.75	403.43
418.122	472.37
418.494	444.29
418.866	357.47
419.238	393.22
419.609	354.92
419.981	375.35
420.353	370.24
420.725	377.9
421.096	375.35
421.468	377.9
421.839	347.26
422.211	349.81
422.582	367.69
422.953	383.01
423.325	377.9
423.696	388.11
424.067	370.24
424.438	321.73
424.809	431.52
425.18	428.97
425.551	352.37
425.922	390.67
426.293	349.81
426.664	421.31
427.035	423.86
427.406	334.49
427.776	411.09
428.147	395.77
428.518	467.27
428.888	334.49
429.259	469.82
429.629	472.37
429.999	367.69
430.37	403.43
430.74	418.75
431.11	321.73
431.481	400.88
431.851	367.69
432.221	385.56
432.591	383.01
432.961	421.31
433.331	380.45
433.701	459.61
434.071	428.97
434.441	400.88
434.81	436.63
435.18	436.63
435.55	403.43
435.919	337.05
436.289	380.45
436.658	357.47
437.028	352.37
437.397	344.71
437.767	423.86
438.136	405.99
438.505	362.58
438.875	390.67
439.244	444.29
439.613	395.77
439.982	408.54
440.351	400.88
440.72	457.05
441.089	441.73
441.458	403.43
441.827	444.29
442.196	380.45
442.564	459.61
442.933	344.71
443.302	324.28
443.67	385.56
444.039	314.07
444.407	403.43
444.776	362.58
445.144	362.58
445.513	362.58
445.881	403.43
446.249	380.45
446.617	431.52
446.986	365.13
447.354	329.39
447.722	431.52
448.09	400.88
448.458	446.84
448.826	418.75
449.194	380.45
449.561	395.77
449.929	462.16
450.297	428.97
450.665	413.65
451.032	349.81
451.4	403.43
451.767	375.35
452.135	367.69
452.502	380.45
452.87	380.45
453.237	431.52
453.604	367.69
453.971	490.25
454.339	457.05
454.706	426.41
455.073	462.16
455.44	418.75
455.807	428.97
456.174	434.07
456.541	413.65
456.908	411.09
457.274	367.69
457.641	377.9
458.008	349.81
458.374	431.52
458.741	431.52
459.108	418.75
459.474	403.43
459.841	360.03
460.207	431.52
460.573	385.56
460.94	383.01
461.306	360.03
461.672	370.24
462.038	380.45
462.404	362.58
462.771	426.41
463.137	441.73
463.503	426.41
463.868	446.84
464.234	385.56
464.6	362.58
464.966	349.81
465.332	444.29
465.697	393.22
466.063	480.04
466.429	441.73
466.794	400.88
467.16	390.67
467.525	487.7
467.89	408.54
468.256	400.88
468.621	360.03
468.986	385.56
469.351	347.26
469.717	383.01
470.082	457.05
470.447	395.77
470.812	331.94
471.177	377.9
471.542	441.73
471.906	408.54
472.271	383.01
472.636	339.6
473.001	372.79
473.365	472.37
473.73	388.11
474.094	349.81
474.459	395.77
474.823	467.27
475.188	472.37
475.552	393.22
475.917	380.45
476.281	449.39
476.645	383.01
477.009	405.99
477.373	421.31
477.737	334.49
478.101	398.33
478.465	365.13
478.829	418.75
479.193	365.13
479.557	403.43
479.921	372.79
480.284	423.86
480.648	388.11
481.012	444.29
481.375	416.2
481.739	360.03
482.102	334.49
482.466	372.79
482.829	446.84
483.193	367.69
483.556	319.17
483.919	372.79
484.282	411.09
484.645	418.75
485.009	393.22
485.372	421.31
485.735	329.39
486.098	375.35
486.46	403.43
486.823	426.41
487.186	477.48
487.549	411.09
487.912	383.01
488.274	390.67
488.637	444.29
488.999	408.54
489.362	380.45
489.724	370.24
490.087	451.95
490.449	400.88
490.811	403.43
491.174	395.77
491.536	416.2
491.898	411.09
492.26	390.67
492.622	431.52
492.984	418.75
493.346	408.54
493.708	421.31
494.07	360.03
494.432	416.2
494.794	383.01
495.155	357.47
495.517	314.07
495.879	390.67
496.24	393.22
496.602	426.41
496.963	372.79
497.325	388.11
497.686	446.84
498.048	370.24
498.409	357.47
498.77	426.41
499.131	372.79
499.492	423.86
499.854	457.05
500.215	485.14
500.576	383.01
500.937	380.45
501.298	380.45
501.658	377.9
502.019	360.03
502.38	446.84
502.741	416.2
503.101	421.31
503.462	428.97
503.823	365.13
504.183	393.22
504.543	367.69
504.904	365.13
505.264	393.22
505.625	408.54
505.985	365.13
506.345	439.18
506.705	398.33
507.065	405.99
507.426	464.71
507.786	408.54
508.146	408.54
508.505	439.18
508.865	444.29
509.225	405.99
509.585	413.65
509.945	408.54
510.304	423.86
510.664	416.2
511.024	367.69
511.383	405.99
511.743	398.33
512.102	344.71
512.462	357.47
512.821	388.11
513.18	439.18
513.539	388.11
513.899	377.9
514.258	454.5
514.617	428.97
514.976	449.39
515.335	383.01
515.694	459.61
516.053	416.2
516.412	362.58
516.771	485.14
517.129	426.41
517.488	423.86
517.847	352.37
518.205	431.52
518.564	451.95
518.922	418.75
519.281	421.31
519.639	334.49
519.998	416.2
520.356	375.35
520.714	388.11
521.073	467.27
521.431	377.9
521.789	428.97
522.147	423.86
522.505	469.82
522.863	377.9
523.221	388.11
523.579	377.9
523.937	395.77
524.295	449.39
524.652	362.58
525.01	459.61
525.368	418.75
525.725	398.33
526.083	403.43
526.44	395.77
526.798	413.65
527.155	428.97
527.513	352.37
527.87	457.05
528.227	403.43
528.584	477.48
528.942	306.41
529.299	426.41
529.656	408.54
530.013	441.73
530.37	408.54
530.727	388.11
531.083	444.29
531.44	398.33
531.797	365.13
532.154	418.75
532.511	423.86
532.867	426.41
533.224	377.9
533.58	423.86
533.937	342.15
534.293	416.2
534.65	454.5
535.006	413.65
535.362	370.24
535.718	411.09
536.075	423.86
536.431	523.44
536.787	375.35
537.143	390.67
537.499	334.49
537.855	441.73
538.211	385.56
538.567	388.11
538.923	365.13
539.278	398.33
539.634	467.27
539.99	423.86
540.345	383.01
540.701	398.33
541.056	377.9
541.412	357.47
541.767	400.88
542.123	426.41
542.478	510.68
542.833	449.39
543.188	393.22
543.544	405.99
543.899	439.18
544.254	367.69
544.609	393.22
544.964	416.2
545.319	474.93
545.674	403.43
546.029	444.29
546.383	416.2
546.738	403.43
547.093	395.77
547.447	426.41
547.802	370.24
548.157	362.58
548.511	416.2
548.866	352.37
549.22	372.79
549.574	370.24
549.929	375.35
550.283	439.18
550.637	370.24
550.991	390.67
551.345	416.2
551.699	408.54
552.053	434.07
552.407	400.88
552.761	426.41
553.115	423.86
553.469	449.39
553.823	441.73
554.176	472.37
554.53	398.33
554.884	390.67
555.237	633.24
555.591	405.99
555.944	513.23
556.298	449.39
556.651	416.2
557.005	418.75
557.358	413.65
557.711	462.16
558.064	454.5
558.417	408.54
558.771	515.78
559.124	446.84
559.477	472.37
559.83	426.41
560.182	393.22
560.535	416.2
560.888	398.33
561.241	349.81
561.594	434.07
561.946	334.49
562.299	347.26
562.651	367.69
563.004	390.67
563.356	446.84
563.709	418.75
564.061	408.54
564.413	408.54
564.766	451.95
565.118	413.65
565.47	372.79
565.822	413.65
566.174	444.29
566.526	446.84
566.878	380.45
567.23	462.16
567.582	411.09
567.934	390.67
568.286	444.29
568.638	467.27
568.989	436.63
569.341	390.67
569.693	385.56
570.044	472.37
570.396	423.86
570.747	342.15
571.098	354.92
571.45	418.75
571.801	421.31
572.152	365.13
572.504	441.73
572.855	342.15
573.206	372.79
573.557	375.35
573.908	459.61
574.259	411.09
574.61	426.41
574.961	446.84
575.311	423.86
575.662	408.54
576.013	293.64
576.364	423.86
576.714	413.65
577.065	395.77
577.415	439.18
577.766	403.43
578.116	467.27
578.467	380.45
578.817	434.07
579.167	403.43
579.518	385.56
579.868	347.26
580.218	370.24
580.568	405.99
580.918	441.73
581.268	393.22
581.618	403.43
581.968	405.99
582.318	408.54
582.668	416.2
583.017	405.99
583.367	457.05
583.717	388.11
584.066	377.9
584.416	423.86
584.765	398.33
585.115	393.22
585.464	367.69
585.814	428.97
586.163	441.73
586.512	418.75
586.862	472.37
587.211	474.93
587.56	383.01
587.909	385.56
588.258	377.9
588.607	411.09
588.956	385.56
589.305	349.81
589.654	362.58
590.002	413.65
590.351	400.88
590.7	418.75
591.048	395.77
591.397	354.92
591.746	344.71
592.094	451.95
592.443	418.75
592.791	413.65
593.139	444.29
593.488	377.9
593.836	405.99
594.184	388.11
594.532	411.09
594.88	416.2
595.228	372.79
595.576	383.01
595.924	362.58
596.272	436.63
596.62	408.54
596.968	380.45
597.316	354.92
597.664	421.31
598.011	459.61
598.359	444.29
598.706	421.31
599.054	403.43
599.402	385.56
599.749	362.58
600.096	344.71
600.444	431.52
600.791	365.13
601.138	439.18
601.485	390.67
601.833	434.07
602.18	349.81
602.527	469.82
602.874	444.29
603.221	426.41
603.568	431.52
603.914	451.95
604.261	444.29
604.608	405.99
604.955	408.54
605.301	400.88
605.648	349.81
605.995	451.95
606.341	459.61
606.688	362.58
607.034	441.73
607.38	426.41
607.727	380.45
608.073	331.94
608.419	329.39
608.765	426.41
609.112	459.61
609.458	411.09
609.804	411.09
610.15	400.88
610.496	337.05
610.842	403.43
611.187	421.31
611.533	405.99
611.879	400.88
612.225	372.79
612.57	441.73
612.916	487.7
613.261	434.07
613.607	431.52
613.952	288.53
614.298	344.71
614.643	367.69
614.989	344.71
615.334	416.2
615.679	395.77
616.024	413.65
616.369	352.37
616.714	383.01
617.059	367.69
617.404	403.43
617.749	492.8
618.094	400.88
618.439	395.77
618.784	347.26
619.129	375.35
619.473	395.77
619.818	426.41
620.163	403.43
620.507	393.22
620.852	377.9
621.196	398.33
621.54	393.22
621.885	360.03
622.229	441.73
622.573	403.43
622.918	367.69
623.262	457.05
623.606	421.31
623.95	441.73
624.294	411.09
624.638	423.86
624.982	377.9
625.326	344.71
625.67	400.88
626.013	441.73
626.357	360.03
626.701	393.22
627.044	377.9
627.388	395.77
627.731	370.24
628.075	390.67
628.418	446.84
628.762	393.22
629.105	469.82
629.448	380.45
629.792	329.39
630.135	388.11
630.478	370.24
630.821	342.15
631.164	344.71
631.507	492.8
631.85	352.37
632.193	405.99
632.536	390.67
632.879	372.79
633.221	385.56
633.564	492.8
633.907	434.07
634.249	426.41
634.592	370.24
634.935	393.22
635.277	457.05
635.619	411.09
635.962	367.69
636.304	375.35
636.646	441.73
636.989	464.71
637.331	436.63
637.673	377.9
638.015	469.82
638.357	395.77
638.699	477.48
639.041	459.61
639.383	347.26
639.725	367.69
640.067	377.9
640.408	408.54
640.75	459.61
641.092	459.61
641.433	449.39
641.775	377.9
642.116	398.33
642.458	439.18
642.799	408.54
643.141	388.11
643.482	464.71
643.823	388.11
644.164	388.11
644.506	464.71
644.847	398.33
645.188	390.67
645.529	372.79
645.87	449.39
646.211	385.56
646.552	347.26
646.893	375.35
647.233	405.99
647.574	388.11
647.915	337.05
648.255	418.75
648.596	408.54
648.937	408.54
649.277	408.54
649.618	449.39
649.958	388.11
650.298	449.39
650.639	418.75
650.979	393.22
651.319	449.39
651.659	408.54
651.999	398.33
652.339	408.54
652.679	472.37
653.019	398.33
653.359	428.97
653.699	383.01
654.039	474.93
654.379	375.35
654.719	398.33
655.058	439.18
655.398	477.48
655.737	405.99
656.077	459.61
656.416	418.75
656.756	337.05
657.095	418.75
657.435	367.69
657.774	367.69
658.113	459.61
658.452	393.22
658.792	367.69
659.131	428.97
659.47	454.5
659.809	388.11
660.148	390.67
660.487	449.39
660.826	418.75
661.164	354.92
661.503	383.01
661.842	395.77
662.181	352.37
662.519	403.43
662.858	347.26
663.196	405.99
663.535	388.11
663.873	436.63
664.212	457.05
664.55	449.39
664.888	377.9
665.226	480.04
665.565	326.83
665.903	526
666.241	449.39
666.579	418.75
666.917	388.11
667.255	367.69
667.593	411.09
667.931	393.22
668.268	326.83
668.606	434.07
668.944	383.01
669.282	385.56
669.619	380.45
669.957	388.11
670.294	334.49
670.632	349.81
670.969	362.58
671.307	467.27
671.644	377.9
671.981	347.26
672.318	436.63
672.656	354.92
672.993	408.54
673.33	352.37
673.667	347.26
674.004	357.47
674.341	372.79
674.678	439.18
675.015	441.73
675.351	383.01
675.688	388.11
676.025	436.63
676.362	449.39
676.698	395.77
677.035	405.99
677.371	403.43
677.708	428.97
678.044	367.69
678.38	444.29
678.717	377.9
679.053	390.67
679.389	413.65
679.725	388.11
680.062	395.77
680.398	449.39
680.734	411.09
681.07	385.56
681.406	459.61
681.742	459.61
682.077	398.33
682.413	370.24
682.749	408.54
683.085	367.69
683.42	403.43
683.756	413.65
684.091	334.49
684.427	408.54
684.762	383.01
685.098	405.99
685.433	385.56
685.768	347.26
686.104	367.69
686.439	380.45
686.774	377.9
687.109	367.69
687.444	403.43
687.779	403.43
688.114	451.95
688.449	428.97
688.784	367.69
689.119	370.24
689.454	436.63
689.789	390.67
690.123	377.9
690.458	418.75
690.792	385.56
691.127	352.37
691.461	405.99
691.796	352.37
692.13	449.39
692.465	398.33
692.799	344.71
693.133	403.43
693.467	365.13
693.802	423.86
694.136	367.69
694.47	428.97
694.804	375.35
695.138	413.65
695.472	451.95
695.806	372.79
696.139	393.22
696.473	377.9
696.807	395.77
697.141	441.73
697.474	400.88
697.808	436.63
698.141	413.65
698.475	393.22
698.808	375.35
699.142	360.03
699.475	393.22
699.808	375.35
700.142	411.09
700.475	423.86
700.808	385.56
701.141	411.09
701.474	413.65
701.807	395.77
702.14	431.52
702.473	383.01
702.806	390.67
703.139	441.73
703.472	418.75
703.804	421.31
704.137	421.31
704.47	354.92
704.802	400.88
705.135	367.69
705.467	375.35
705.8	375.35
706.132	377.9
706.464	385.56
706.797	337.05
707.129	306.41
707.461	367.69
707.793	398.33
708.125	428.97
708.457	388.11
708.789	418.75
709.121	439.18
709.453	367.69
709.785	408.54
710.117	413.65
710.449	408.54
710.781	423.86
711.112	388.11
711.444	428.97
711.775	365.13
712.107	408.54
712.438	349.81
712.77	347.26
713.101	321.73
713.433	377.9
713.764	418.75
714.095	426.41
714.426	388.11
714.757	365.13
715.089	316.62
715.42	418.75
715.751	408.54
716.082	367.69
716.412	367.69
716.743	469.82
717.074	418.75
717.405	362.58
717.736	418.75
718.066	413.65
718.397	413.65
718.727	449.39
719.058	411.09
719.388	398.33
719.719	380.45
720.049	416.2
720.38	495.36
720.71	400.88
721.04	337.05
721.37	380.45
721.7	367.69
722.031	344.71
722.361	375.35
722.691	337.05
723.021	375.35
723.35	408.54
723.68	408.54
724.01	418.75
724.34	418.75
724.67	403.43
724.999	357.47
725.329	393.22
725.658	449.39
725.988	418.75
726.317	426.41
726.647	393.22
726.976	400.88
727.306	403.43
727.635	413.65
727.964	337.05
728.293	436.63
728.622	426.41
728.952	390.67
729.281	395.77
729.61	413.65
729.939	398.33
730.267	347.26
730.596	405.99
730.925	439.18
731.254	405.99
731.583	449.39
731.911	362.58
732.24	367.69
732.568	413.65
732.897	403.43
733.225	398.33
733.554	390.67
733.882	321.73
734.21	421.31
734.539	349.81
734.867	326.83
735.195	390.67
735.523	380.45
735.851	349.81
736.179	370.24
736.507	469.82
736.835	431.52
737.163	431.52
737.491	477.48
737.819	400.88
738.147	388.11
738.474	375.35
738.802	446.84
739.13	413.65
739.457	457.05
739.785	403.43
740.112	377.9
740.44	428.97
740.767	354.92
741.094	347.26
741.422	421.31
741.749	418.75
742.076	413.65
742.403	408.54
742.73	408.54
743.057	349.81
743.384	367.69
743.711	349.81
744.038	357.47
744.365	428.97
744.692	405.99
745.018	418.75
745.345	349.81
745.672	428.97
745.998	403.43
746.325	362.58
746.651	316.62
746.978	329.39
747.304	362.58
747.631	375.35
747.957	319.17
748.283	357.47
748.61	431.52
748.936	395.77
749.262	423.86
749.588	380.45
749.914	388.11
750.24	405.99
750.566	347.26
750.892	370.24
751.218	360.03
751.543	388.11
751.869	413.65
752.195	439.18
752.521	441.73
752.846	344.71
753.172	434.07
753.497	405.99
753.823	367.69
754.148	457.05
754.473	398.33
754.799	395.77
755.124	377.9
755.449	393.22
755.774	301.3
756.1	403.43
756.425	403.43
756.75	398.33
757.075	426.41
757.4	513.23
757.724	339.6
758.049	400.88
758.374	393.22
758.699	357.47
759.024	405.99
759.348	411.09
759.673	380.45
759.997	441.73
760.322	464.71
760.646	403.43
760.971	375.35
761.295	421.31
761.619	405.99
761.944	395.77
762.268	385.56
762.592	413.65
762.916	431.52
763.24	403.43
763.564	357.47
763.888	403.43
764.212	431.52
764.536	426.41
764.86	451.95
765.184	526
765.508	477.48
765.831	503.02
766.155	668.99
766.478	518.34
766.802	492.8
767.126	495.36
767.449	528.55
767.772	548.98
768.096	536.21
768.419	487.7
768.742	564.3
769.066	592.38
769.389	628.13
769.712	594.94
770.035	668.99
770.358	707.29
770.681	689.41
771.004	681.75
771.327	732.82
771.65	753.25
771.972	702.18
772.295	773.67
772.618	786.44
772.941	827.29
773.263	857.94
773.586	898.79
773.908	919.22
774.231	1000.92
774.553	1103.06
774.875	1138.81
775.198	1174.55
775.52	1082.63
775.842	1108.17
776.164	1036.67
776.487	1105.61
776.809	1000.92
777.131	1077.53
777.453	1100.51
777.775	1172
778.096	1217.96
778.418	1251.16
778.74	1177.11
779.062	1256.26
779.384	1215.41
779.705	1406.91
780.027	1457.98
780.348	1457.98
780.67	1501.39
780.991	1460.53
781.313	1634.16
781.634	1695.44
781.955	1567.77
782.277	1664.8
782.598	1644.38
782.919	1613.73
783.24	1588.2
783.561	1667.36
783.882	1700.55
784.203	1644.38
784.524	1741.4
784.845	1743.96
785.166	1733.74
785.487	1728.64
785.807	1792.47
786.128	1779.7
786.449	1761.83
786.769	1812.9
787.09	1978.87
787.41	1978.87
787.731	2152.5
788.051	2315.91
788.372	2377.19
788.692	2328.68
789.012	2446.14
789.332	2257.19
789.653	2420.6
789.973	2486.99
790.293	2486.99
790.613	2310.81
790.933	2190.8
791.253	2374.64
791.573	2346.55
791.893	2239.31
792.212	2254.63
792.532	2234.21
792.852	2188.24
793.171	2139.73
793.491	2050.36
793.811	2124.41
794.13	2068.24
794.45	1922.69
794.769	1840.99
795.088	1899.71
795.408	1797.58
795.727	1866.52
796.046	1922.69
796.365	1968.65
796.684	1858.86
797.004	1960.99
797.323	2027.38
797.642	2484.44
797.96	2532.95
798.279	2543.16
798.598	2558.48
798.917	2479.33
799.236	2290.38
799.554	2144.84
799.873	2022.28
800.192	2045.26
800.51	2144.84
800.829	2218.89
801.147	2032.49
801.466	1996.74
801.784	2004.4
802.102	1966.1
802.421	2137.18
802.739	2354.21
803.057	2269.95
803.375	2121.86
803.693	2111.64
804.011	2392.52
804.329	2474.22
804.647	2464.01
804.965	2308.25
805.283	2170.37
805.601	2111.64
805.918	2029.94
806.236	1728.64
806.554	1802.68
806.871	1958.44
807.189	1940.57
807.507	2022.28
807.824	2096.32
808.141	1922.69
808.459	1772.04
808.776	1613.73
809.093	1516.71
809.411	1447.77
809.728	1417.12
810.045	1406.91
810.362	1455.43
810.679	1391.59
810.996	1511.6
811.313	1496.28
811.63	1516.71
811.947	1401.8
812.264	1386.48
812.58	1302.22
812.897	1294.56
813.214	1304.78
813.53	1320.1
813.847	1419.68
814.163	1391.59
814.48	1404.36
814.796	1322.65
815.113	1320.1
815.429	1179.66
815.745	1085.19
816.061	1141.36
816.378	1177.11
816.694	1110.72
817.01	1115.83
817.326	1217.96
817.642	1149.02
817.958	1039.22
818.274	960.07
818.59	947.3
818.905	952.41
819.221	931.98
819.537	1000.92
819.852	1067.31
820.168	1031.56
820.484	896.24
820.799	1018.8
821.115	975.39
821.43	824.74
821.745	903.9
822.061	827.29
822.376	806.87
822.691	814.53
823.006	893.68
823.322	763.46
823.637	771.12
823.952	811.97
824.267	725.16
824.582	829.85
824.897	822.19
825.211	850.27
825.526	829.85
825.841	781.33
826.156	788.99
826.47	753.25
826.785	763.46
827.1	666.43
827.414	640.9
827.729	748.14
828.043	720.05
828.357	653.66
828.672	625.58
828.986	689.41
829.3	569.4
829.614	523.44
829.929	577.06
830.243	538.76
830.557	503.02
830.871	541.32
831.185	548.98
831.499	518.34
831.812	571.96
832.126	543.87
832.44	582.17
832.754	602.6
833.067	582.17
833.381	628.13
833.695	676.65
834.008	571.96
834.322	520.89
834.635	556.64
834.948	528.55
835.262	569.4
835.575	551.53
835.888	561.74
836.201	528.55
836.515	592.38
836.828	469.82
837.141	500.46
837.454	500.46
837.767	464.71
838.08	439.18
838.392	474.93
838.705	459.61
839.018	495.36
839.331	457.05
839.643	561.74
839.956	462.16
840.269	423.86
840.581	451.95
840.894	439.18
841.206	393.22
841.519	579.62
841.831	436.63
842.143	528.55
842.455	474.93
842.768	436.63
843.08	398.33
843.392	439.18
843.704	469.82
844.016	375.35
844.328	439.18
844.64	403.43
844.952	480.04
845.263	403.43
845.575	464.71
845.887	454.5
846.199	462.16
846.51	459.61
846.822	426.41
847.133	400.88
847.445	390.67
847.756	390.67
848.068	367.69
848.379	393.22
848.69	467.27
849.002	380.45
849.313	411.09
849.624	367.69
849.935	446.84
850.246	403.43
850.557	385.56
850.868	395.77
851.179	398.33
851.49	403.43
851.801	354.92
852.112	372.79
852.422	388.11
852.733	372.79
853.044	334.49
853.354	413.65
853.665	411.09
853.975	418.75
854.286	421.31
854.596	423.86
854.906	339.6
855.217	395.77
855.527	423.86
855.837	339.6
856.147	365.13
856.458	375.35
856.768	372.79
857.078	375.35
857.388	416.2
857.698	418.75
858.007	393.22
858.317	411.09
858.627	326.83
858.937	362.58
859.246	321.73
859.556	411.09
859.866	411.09
860.175	372.79
860.485	457.05
860.794	385.56
861.104	416.2
861.413	344.71
861.722	390.67
862.032	434.07
862.341	377.9
862.65	377.9
862.959	439.18
863.268	431.52
863.577	385.56
863.886	347.26
864.195	347.26
864.504	352.37
864.813	411.09
865.122	352.37
865.43	418.75
865.739	388.11
866.048	365.13
866.356	411.09
866.665	375.35
866.973	337.05
867.282	383.01
867.59	383.01
867.899	370.24
868.207	367.69
868.515	383.01
868.823	339.6
869.132	395.77
869.44	380.45
869.748	464.71
870.056	360.03
870.364	252.78
870.672	347.26
870.98	329.39
871.288	380.45
871.595	370.24
871.903	362.58
872.211	383.01
872.518	400.88
872.826	472.37
873.134	349.81
873.441	405.99
873.749	344.71
874.056	314.07
874.363	380.45
874.671	441.73
874.978	331.94
875.285	408.54
875.592	326.83
875.9	375.35
876.207	405.99
876.514	365.13
876.821	383.01
877.128	372.79
877.435	413.65
877.741	398.33
878.048	413.65
878.355	370.24
878.662	344.71
878.968	385.56
879.275	469.82
879.582	426.41
879.888	354.92
880.195	434.07
880.501	383.01
880.807	383.01
881.114	403.43
881.42	413.65
881.726	329.39
882.032	329.39
882.339	390.67
882.645	431.52
882.951	477.48
883.257	467.27
883.563	380.45
883.869	380.45
884.174	349.81
884.48	301.3
884.786	418.75
885.092	405.99
885.397	405.99
885.703	370.24
886.009	349.81
886.314	408.54
886.62	398.33
886.925	383.01
887.231	339.6
887.536	349.81
887.841	357.47
888.146	439.18
888.452	365.13
888.757	344.71
889.062	365.13
889.367	388.11
889.672	403.43
889.977	291.09
890.282	398.33
890.587	362.58
890.892	372.79
891.196	252.78
891.501	370.24
891.806	423.86
892.11	370.24
892.415	400.88
892.72	342.15
893.024	395.77
893.328	503.02
893.633	344.71
893.937	370.24
894.242	390.67
894.546	362.58
894.85	411.09
895.154	393.22
895.458	436.63
895.762	467.27
896.066	385.56
896.37	441.73
896.674	451.95
896.978	367.69
897.282	377.9
897.586	367.69
897.89	354.92
898.193	446.84
898.497	459.61
898.801	413.65
899.104	367.69
899.408	367.69
899.711	383.01
900.014	388.11
900.318	360.03
900.621	393.22
900.924	398.33
901.228	380.45
901.531	428.97
901.834	375.35
902.137	390.67
902.44	413.65
902.743	380.45
903.046	444.29
903.349	372.79
903.652	405.99
903.955	360.03
904.257	390.67
904.56	395.77
904.863	395.77
905.165	326.83
905.468	451.95
905.77	354.92
906.073	428.97
906.375	408.54
906.678	398.33
906.98	349.81
907.282	377.9
907.584	388.11
907.887	388.11
908.189	434.07
908.491	334.49
908.793	367.69
909.095	423.86
909.397	362.58
909.699	436.63
910.001	428.97
910.302	383.01
910.604	508.12
910.906	416.2
911.208	388.11
911.509	403.43
911.811	400.88
912.112	393.22
912.414	316.62
912.715	408.54
913.017	390.67
913.318	416.2
913.619	472.37
913.92	398.33
914.222	357.47
914.523	380.45
914.824	372.79
915.125	416.2
915.426	398.33
915.727	347.26
916.028	421.31
916.329	334.49
916.63	372.79
916.93	367.69
917.231	337.05
917.532	385.56
917.832	372.79
918.133	329.39
918.434	474.93
918.734	403.43
919.034	372.79
919.335	278.32
919.635	344.71
919.935	334.49
920.236	370.24
920.536	370.24
920.836	375.35
921.136	337.05
921.436	485.14
921.736	467.27
922.036	360.03
922.336	423.86
922.636	362.58
922.936	385.56
923.236	413.65
923.535	349.81
923.835	385.56
924.135	339.6
924.434	403.43
924.734	431.52
925.033	360.03
925.333	398.33
925.632	334.49
925.932	395.77
926.231	370.24
926.53	370.24
926.83	388.11
927.129	393.22
927.428	398.33
927.727	370.24
928.026	354.92
928.325	449.39
928.624	339.6
928.923	408.54
929.222	329.39
929.52	352.37
929.819	408.54
930.118	385.56
930.417	398.33
930.715	365.13
931.014	405.99
931.312	423.86
931.611	418.75
931.909	413.65
932.207	413.65
932.506	423.86
932.804	360.03
933.102	383.01
933.401	395.77
933.699	375.35
933.997	390.67
934.295	380.45
934.593	370.24
934.891	418.75
935.189	398.33
935.487	405.99
935.784	380.45
936.082	365.13
936.38	367.69
936.677	454.5
936.975	393.22
937.273	365.13
937.57	408.54
937.868	352.37
938.165	303.85
938.463	411.09
938.76	418.75
939.057	393.22
939.354	365.13
939.652	275.76
939.949	390.67
940.246	342.15
940.543	375.35
940.84	413.65
941.137	352.37
941.434	390.67
941.731	349.81
942.028	260.44
942.324	360.03
942.621	365.13
942.918	426.41
943.214	405.99
943.511	349.81
943.807	375.35
944.104	362.58
944.4	337.05
944.697	388.11
944.993	431.52
945.29	342.15
945.586	360.03
945.882	372.79
946.178	377.9
946.474	334.49
946.77	431.52
947.066	334.49
947.362	375.35
947.658	367.69
947.954	362.58
948.25	354.92
948.546	398.33
948.842	439.18
949.137	362.58
949.433	380.45
949.729	444.29
950.024	383.01
950.32	388.11
950.615	349.81
950.91	370.24
951.206	344.71
951.501	395.77
951.796	393.22
952.092	329.39
952.387	446.84
952.682	403.43
952.977	434.07
953.272	375.35
953.567	375.35
953.862	388.11
954.157	370.24
954.452	370.24
954.747	377.9
955.041	377.9
955.336	393.22
955.631	431.52
955.925	411.09
956.22	434.07
956.514	306.41
956.809	411.09
957.103	334.49
957.398	334.49
957.692	375.35
957.986	434.07
958.281	457.05
958.575	444.29
958.869	398.33
959.163	357.47
959.457	385.56
959.751	357.47
960.045	380.45
960.339	413.65
960.633	403.43
960.927	423.86
961.221	418.75
961.514	421.31
961.808	426.41
962.102	380.45
962.395	390.67
962.689	388.11
962.982	370.24
963.276	326.83
963.569	380.45
963.862	344.71
964.156	423.86
964.449	360.03
964.742	316.62
965.035	370.24
965.328	362.58
965.622	385.56
965.915	349.81
966.208	316.62
966.5	339.6
966.793	451.95
967.086	423.86
967.379	365.13
967.672	362.58
967.964	385.56
968.257	370.24
968.55	349.81
968.842	398.33
969.135	457.05
969.427	367.69
969.72	411.09
970.012	339.6
970.304	423.86
970.597	403.43
970.889	388.11
971.181	477.48
971.473	344.71
971.765	385.56
972.057	436.63
972.349	408.54
972.641	342.15
972.933	393.22
973.225	357.47
973.517	434.07
973.809	372.79
974.1	416.2
974.392	421.31
974.684	331.94
974.975	416.2
975.267	354.92
975.558	362.58
975.85	411.09
976.141	462.16
976.432	403.43
976.724	393.22
977.015	436.63
977.306	390.67
977.597	360.03
977.888	329.39
978.179	365.13
978.47	326.83
978.761	416.2
979.052	451.95
979.343	431.52
979.634	408.54
979.925	367.69
980.215	296.19
980.506	405.99
980.797	416.2
981.087	367.69
981.378	357.47
981.668	362.58
981.959	377.9
982.249	352.37
982.54	372.79
982.83	418.75
983.12	416.2
983.41	372.79
983.701	477.48
983.991	303.85
984.281	311.51
984.571	311.51
984.861	400.88
985.151	362.58
985.441	434.07
985.73	370.24
986.02	395.77
986.31	360.03
986.6	400.88
986.889	446.84
987.179	334.49
987.469	316.62
987.758	436.63
988.048	349.81
988.337	367.69
988.626	413.65
988.916	296.19
989.205	357.47
989.494	308.96
989.783	398.33
990.073	405.99
990.362	357.47
990.651	388.11
990.94	400.88
991.229	352.37
991.518	428.97
991.806	377.9
992.095	388.11
992.384	380.45
992.673	375.35
992.961	357.47
993.25	367.69
993.539	383.01
993.827	329.39
994.116	347.26
994.404	352.37
994.692	377.9
994.981	441.73
995.269	370.24
995.557	367.69
995.846	293.64
996.134	398.33
996.422	385.56
996.71	411.09
996.998	357.47
997.286	331.94
997.574	291.09
997.862	367.69
998.15	411.09
998.437	434.07
998.725	380.45
999.013	395.77
999.3	388.11
999.588	360.03
999.876	411.09
1000.163	390.67
1000.45	449.39
1000.738	439.18
1001.025	390.67
1001.313	380.45
1001.6	344.71
1001.887	357.47
1002.174	362.58
1002.461	380.45
1002.748	375.35
1003.036	301.3
1003.322	418.75
1003.609	390.67
1003.896	385.56
1004.183	398.33
1004.47	344.71
1004.757	316.62
1005.043	339.6
1005.33	352.37
1005.617	321.73
1005.903	418.75
1006.19	444.29
1006.476	400.88
1006.763	400.88
1007.049	400.88
1007.335	459.61
1007.622	370.24
1007.908	344.71
1008.194	349.81
1008.48	405.99
1008.766	423.86
1009.053	375.35
1009.339	326.83
1009.625	400.88
1009.91	362.58
1010.196	411.09
1010.482	408.54
1010.768	434.07
1011.054	416.2
1011.339	370.24
1011.625	370.24
1011.911	403.43
1012.196	451.95
1012.482	337.05
1012.767	385.56
1013.052	411.09
1013.338	365.13
1013.623	329.39
1013.908	326.83
1014.194	383.01
1014.479	360.03
1014.764	403.43
1015.049	441.73
1015.334	383.01
1015.619	405.99
1015.904	405.99
1016.189	390.67
1016.474	370.24
1016.758	400.88
1017.043	439.18
1017.328	372.79
1017.613	329.39
1017.897	436.63
1018.182	411.09
1018.466	367.69
1018.751	349.81
1019.035	288.53
1019.32	357.47
1019.604	395.77
1019.888	362.58
1020.172	362.58
1020.457	362.58
