Data from 2025-12-03_xpw_interference_micrometer_634_reference_FLMS141361__14__464.txt Node

Date: Wed Dec 03 15:52:20 MST 2025
User: james
Spectrometer: FLMS14136
Trigger mode: 0
Integration Time (sec): 1.000000E-1
Scans to average: 1
Electric dark correction enabled: true
Nonlinearity correction enabled: false
Boxcar width: 0
XAxis mode: Wavelengths
Number of Pixels in Spectrum: 2048
>>>>>Begin Spectral Data<<<<<
339.315	-3.03
339.697	-3.03
340.079	-3.03
340.461	-33.67
340.843	-125.59
341.225	-123.04
341.607	-69.42
341.989	-79.63
342.371	-138.36
342.752	-77.08
343.134	-33.67
343.516	-28.57
343.897	-23.46
344.279	-20.91
344.661	-0.48
345.042	30.16
345.423	104.21
345.805	101.66
346.186	73.57
346.567	150.17
346.949	134.85
347.33	185.92
347.711	165.49
348.092	206.34
348.473	203.79
348.854	247.2
349.235	272.73
349.616	226.77
349.997	242.09
350.378	282.95
350.758	323.8
351.139	341.67
351.52	303.37
351.9	280.39
352.281	316.14
352.661	413.17
353.042	387.63
353.422	382.53
353.803	479.56
354.183	431.04
354.563	428.49
354.943	313.59
355.324	356.99
355.704	379.97
356.084	334.01
356.464	318.69
356.844	438.7
357.224	339.12
357.603	425.94
357.983	408.06
358.363	446.36
358.743	400.4
359.122	344.23
359.502	367.21
359.882	369.76
360.261	305.93
360.641	385.08
361.02	377.42
361.399	272.73
361.779	385.08
362.158	446.36
362.537	408.06
362.916	303.37
363.296	402.95
363.675	316.14
364.054	336.57
364.433	410.62
364.812	275.29
365.19	316.14
365.569	344.23
365.948	374.87
366.327	359.55
366.705	303.37
367.084	334.01
367.463	351.89
367.841	300.82
368.22	369.76
368.598	341.67
368.977	259.97
369.355	305.93
369.733	321.25
370.111	339.12
370.49	290.61
370.868	341.67
371.246	349.33
371.624	316.14
372.002	359.55
372.38	382.53
372.758	362.1
373.136	328.91
373.513	349.33
373.891	303.37
374.269	321.25
374.646	418.28
375.024	441.26
375.402	339.12
375.779	372.31
376.157	377.42
376.534	354.44
376.911	359.55
377.289	349.33
377.666	387.63
378.043	400.4
378.42	402.95
378.797	374.87
379.175	359.55
379.552	298.27
379.929	313.59
380.305	341.67
380.682	372.31
381.059	415.72
381.436	328.91
381.813	351.89
382.189	305.93
382.566	341.67
382.943	336.57
383.319	385.08
383.696	413.17
384.072	395.29
384.448	326.35
384.825	354.44
385.201	351.89
385.577	326.35
385.953	290.61
386.329	349.33
386.706	351.89
387.082	433.6
387.458	339.12
387.834	351.89
388.209	359.55
388.585	331.46
388.961	382.53
389.337	379.97
389.713	362.1
390.088	379.97
390.464	392.74
390.839	372.31
391.215	303.37
391.59	321.25
391.966	369.76
392.341	382.53
392.716	351.89
393.092	448.92
393.467	387.63
393.842	318.69
394.217	367.21
394.592	372.31
394.967	334.01
395.342	318.69
395.717	369.76
396.092	400.4
396.467	423.38
396.841	372.31
397.216	390.19
397.591	410.62
397.965	379.97
398.34	402.95
398.714	351.89
399.089	339.12
399.463	374.87
399.838	390.19
400.212	372.31
400.586	387.63
400.961	369.76
401.335	397.85
401.709	364.65
402.083	362.1
402.457	390.19
402.831	344.23
403.205	374.87
403.579	367.21
403.953	402.95
404.326	425.94
404.7	484.66
405.074	331.46
405.447	369.76
405.821	413.17
406.195	402.95
406.568	331.46
406.942	423.38
407.315	441.26
407.688	428.49
408.062	413.17
408.435	362.1
408.808	382.53
409.181	369.76
409.554	395.29
409.927	443.81
410.3	392.74
410.673	438.7
411.046	431.04
411.419	397.85
411.792	408.06
412.165	387.63
412.537	441.26
412.91	415.72
413.283	318.69
413.655	405.51
414.028	318.69
414.4	420.83
414.773	433.6
415.145	379.97
415.517	402.95
415.889	395.29
416.262	349.33
416.634	372.31
417.006	374.87
417.378	362.1
417.75	428.49
418.122	390.19
418.494	402.95
418.866	464.24
419.238	413.17
419.609	405.51
419.981	369.76
420.353	408.06
420.725	418.28
421.096	423.38
421.468	387.63
421.839	385.08
422.211	395.29
422.582	390.19
422.953	326.35
423.325	471.9
423.696	372.31
424.067	316.14
424.438	359.55
424.809	410.62
425.18	349.33
425.551	413.17
425.922	436.15
426.293	385.08
426.664	410.62
427.035	344.23
427.406	454.02
427.776	377.42
428.147	351.89
428.518	364.65
428.888	372.31
429.259	423.38
429.629	410.62
429.999	392.74
430.37	397.85
430.74	387.63
431.11	392.74
431.481	415.72
431.851	402.95
432.221	461.68
432.591	431.04
432.961	392.74
433.331	418.28
433.701	443.81
434.071	425.94
434.441	313.59
434.81	413.17
435.18	369.76
435.55	387.63
435.919	346.78
436.289	418.28
436.658	356.99
437.028	364.65
437.397	410.62
437.767	405.51
438.136	390.19
438.505	354.44
438.875	346.78
439.244	390.19
439.613	392.74
439.982	405.51
440.351	423.38
440.72	436.15
441.089	420.83
441.458	418.28
441.827	464.24
442.196	377.42
442.564	484.66
442.933	431.04
443.302	354.44
443.67	464.24
444.039	395.29
444.407	408.06
444.776	359.55
445.144	413.17
445.513	387.63
445.881	413.17
446.249	395.29
446.617	415.72
446.986	443.81
447.354	379.97
447.722	387.63
448.09	392.74
448.458	443.81
448.826	397.85
449.194	436.15
449.561	415.72
449.929	408.06
450.297	356.99
450.665	344.23
451.032	474.45
451.4	402.95
451.767	431.04
452.135	364.65
452.502	413.17
452.87	413.17
453.237	367.21
453.604	461.68
453.971	413.17
454.339	387.63
454.706	392.74
455.073	349.33
455.44	374.87
455.807	402.95
456.174	461.68
456.541	433.6
456.908	482.11
457.274	387.63
457.641	479.56
458.008	400.4
458.374	392.74
458.741	420.83
459.108	425.94
459.474	456.58
459.841	415.72
460.207	418.28
460.573	369.76
460.94	392.74
461.306	392.74
461.672	372.31
462.038	441.26
462.404	420.83
462.771	402.95
463.137	402.95
463.503	392.74
463.868	410.62
464.234	471.9
464.6	438.7
464.966	454.02
465.332	387.63
465.697	385.08
466.063	369.76
466.429	466.79
466.794	448.92
467.16	415.72
467.525	418.28
467.89	395.29
468.256	423.38
468.621	354.44
468.986	377.42
469.351	446.36
469.717	413.17
470.082	423.38
470.447	382.53
470.812	390.19
471.177	484.66
471.542	331.46
471.906	382.53
472.271	402.95
472.636	415.72
473.001	372.31
473.365	377.42
473.73	362.1
474.094	382.53
474.459	402.95
474.823	433.6
475.188	395.29
475.552	392.74
475.917	454.02
476.281	377.42
476.645	402.95
477.009	443.81
477.373	438.7
477.737	367.21
478.101	395.29
478.465	459.13
478.829	382.53
479.193	441.26
479.557	359.55
479.921	341.67
480.284	420.83
480.648	367.21
481.012	339.12
481.375	364.65
481.739	367.21
482.102	431.04
482.466	323.8
482.829	420.83
483.193	397.85
483.556	369.76
483.919	390.19
484.282	423.38
484.645	420.83
485.009	390.19
485.372	349.33
485.735	466.79
486.098	336.57
486.46	441.26
486.823	405.51
487.186	364.65
487.549	418.28
487.912	369.76
488.274	359.55
488.637	428.49
488.999	423.38
489.362	395.29
489.724	400.4
490.087	461.68
490.449	400.4
490.811	397.85
491.174	428.49
491.536	385.08
491.898	410.62
492.26	344.23
492.622	359.55
492.984	420.83
493.346	392.74
493.708	385.08
494.07	377.42
494.432	431.04
494.794	390.19
495.155	382.53
495.517	418.28
495.879	446.36
496.24	477
496.602	400.4
496.963	464.24
497.325	395.29
497.686	428.49
498.048	423.38
498.409	395.29
498.77	418.28
499.131	356.99
499.492	446.36
499.854	459.13
500.215	443.81
500.576	446.36
500.937	390.19
501.298	397.85
501.658	405.51
502.019	428.49
502.38	433.6
502.741	334.01
503.101	395.29
503.462	428.49
503.823	364.65
504.183	428.49
504.543	448.92
504.904	408.06
505.264	431.04
505.625	418.28
505.985	482.11
506.345	400.4
506.705	410.62
507.065	385.08
507.426	359.55
507.786	390.19
508.146	446.36
508.505	451.47
508.865	397.85
509.225	385.08
509.585	512.75
509.945	448.92
510.304	436.15
510.664	400.4
511.024	362.1
511.383	374.87
511.743	349.33
512.102	382.53
512.462	482.11
512.821	464.24
513.18	408.06
513.539	359.55
513.899	418.28
514.258	451.47
514.617	459.13
514.976	425.94
515.335	369.76
515.694	451.47
516.053	359.55
516.412	379.97
516.771	418.28
517.129	379.97
517.488	431.04
517.847	451.47
518.205	492.32
518.564	390.19
518.922	425.94
519.281	369.76
519.639	349.33
519.998	359.55
520.356	385.08
520.714	413.17
521.073	364.65
521.431	349.33
521.789	395.29
522.147	438.7
522.505	428.49
522.863	443.81
523.221	410.62
523.579	387.63
523.937	364.65
524.295	369.76
524.652	408.06
525.01	461.68
525.368	359.55
525.725	418.28
526.083	441.26
526.44	451.47
526.798	385.08
527.155	339.12
527.513	400.4
527.87	415.72
528.227	385.08
528.584	423.38
528.942	436.15
529.299	466.79
529.656	428.49
530.013	433.6
530.37	428.49
530.727	418.28
531.083	448.92
531.44	318.69
531.797	397.85
532.154	369.76
532.511	400.4
532.867	364.65
533.224	400.4
533.58	400.4
533.937	420.83
534.293	410.62
534.65	423.38
535.006	359.55
535.362	410.62
535.718	420.83
536.075	385.08
536.431	433.6
536.787	410.62
537.143	461.68
537.499	446.36
537.855	438.7
538.211	402.95
538.567	379.97
538.923	405.51
539.278	428.49
539.634	431.04
539.99	408.06
540.345	451.47
540.701	474.45
541.056	420.83
541.412	410.62
541.767	466.79
542.123	441.26
542.478	300.82
542.833	359.55
543.188	420.83
543.544	413.17
543.899	456.58
544.254	392.74
544.609	390.19
544.964	405.51
545.319	356.99
545.674	397.85
546.029	443.81
546.383	415.72
546.738	382.53
547.093	385.08
547.447	328.91
547.802	382.53
548.157	377.42
548.511	402.95
548.866	489.77
549.22	410.62
549.574	448.92
549.929	431.04
550.283	454.02
550.637	395.29
550.991	461.68
551.345	379.97
551.699	425.94
552.053	464.24
552.407	382.53
552.761	390.19
553.115	385.08
553.469	428.49
553.823	418.28
554.176	392.74
554.53	436.15
554.884	408.06
555.237	640.42
555.591	431.04
555.944	423.38
556.298	392.74
556.651	446.36
557.005	459.13
557.358	364.65
557.711	418.28
558.064	413.17
558.417	423.38
558.771	471.9
559.124	413.17
559.477	420.83
559.83	454.02
560.182	413.17
560.535	456.58
560.888	356.99
561.241	385.08
561.594	356.99
561.946	428.49
562.299	423.38
562.651	420.83
563.004	367.21
563.356	344.23
563.709	374.87
564.061	428.49
564.413	425.94
564.766	425.94
565.118	438.7
565.47	433.6
565.822	405.51
566.174	418.28
566.526	428.49
566.878	379.97
567.23	464.24
567.582	413.17
567.934	390.19
568.286	385.08
568.638	405.51
568.989	489.77
569.341	454.02
569.693	390.19
570.044	377.42
570.396	438.7
570.747	441.26
571.098	387.63
571.45	334.01
571.801	431.04
572.152	359.55
572.504	410.62
572.855	400.4
573.206	387.63
573.557	410.62
573.908	441.26
574.259	405.51
574.61	374.87
574.961	405.51
575.311	466.79
575.662	349.33
576.013	418.28
576.364	418.28
576.714	377.42
577.065	377.42
577.415	374.87
577.766	451.47
578.116	374.87
578.467	349.33
578.817	420.83
579.167	413.17
579.518	410.62
579.868	408.06
580.218	405.51
580.568	400.4
580.918	520.41
581.268	410.62
581.618	400.4
581.968	454.02
582.318	425.94
582.668	395.29
583.017	431.04
583.367	487.22
583.717	484.66
584.066	402.95
584.416	489.77
584.765	379.97
585.115	372.31
585.464	448.92
585.814	382.53
586.163	364.65
586.512	359.55
586.862	346.78
587.211	471.9
587.56	438.7
587.909	387.63
588.258	420.83
588.607	410.62
588.956	415.72
589.305	369.76
589.654	425.94
590.002	405.51
590.351	395.29
590.7	402.95
591.048	410.62
591.397	367.21
591.746	402.95
592.094	382.53
592.443	443.81
592.791	410.62
593.139	420.83
593.488	362.1
593.836	408.06
594.184	367.21
594.532	385.08
594.88	477
595.228	448.92
595.576	420.83
595.924	420.83
596.272	418.28
596.62	372.31
596.968	359.55
597.316	395.29
597.664	369.76
598.011	405.51
598.359	428.49
598.706	364.65
599.054	443.81
599.402	441.26
599.749	423.38
600.096	456.58
600.444	351.89
600.791	382.53
601.138	431.04
601.485	418.28
601.833	387.63
602.18	316.14
602.527	392.74
602.874	390.19
603.221	395.29
603.568	405.51
603.914	369.76
604.261	392.74
604.608	379.97
604.955	392.74
605.301	433.6
605.648	313.59
605.995	392.74
606.341	385.08
606.688	397.85
607.034	377.42
607.38	326.35
607.727	326.35
608.073	402.95
608.419	359.55
608.765	405.51
609.112	364.65
609.458	395.29
609.804	356.99
610.15	405.51
610.496	428.49
610.842	382.53
611.187	418.28
611.533	369.76
611.879	377.42
612.225	446.36
612.57	382.53
612.916	390.19
613.261	385.08
613.607	349.33
613.952	418.28
614.298	402.95
614.643	415.72
614.989	413.17
615.334	379.97
615.679	436.15
616.024	377.42
616.369	372.31
616.714	387.63
617.059	405.51
617.404	402.95
617.749	369.76
618.094	433.6
618.439	405.51
618.784	362.1
619.129	397.85
619.473	374.87
619.818	341.67
620.163	402.95
620.507	448.92
620.852	441.26
621.196	423.38
621.54	346.78
621.885	418.28
622.229	374.87
622.573	334.01
622.918	341.67
623.262	420.83
623.606	334.01
623.95	413.17
624.294	413.17
624.638	372.31
624.982	410.62
625.326	418.28
625.67	346.78
626.013	459.13
626.357	362.1
626.701	395.29
627.044	431.04
627.388	318.69
627.731	374.87
628.075	454.02
628.418	362.1
628.762	400.4
629.105	400.4
629.448	356.99
629.792	377.42
630.135	454.02
630.478	477
630.821	405.51
631.164	410.62
631.507	400.4
631.85	392.74
632.193	367.21
632.536	423.38
632.879	405.51
633.221	385.08
633.564	387.63
633.907	385.08
634.249	392.74
634.592	377.42
634.935	402.95
635.277	359.55
635.619	351.89
635.962	372.31
636.304	344.23
636.646	362.1
636.989	374.87
637.331	418.28
637.673	372.31
638.015	372.31
638.357	362.1
638.699	423.38
639.041	344.23
639.383	397.85
639.725	387.63
640.067	351.89
640.408	397.85
640.75	402.95
641.092	415.72
641.433	369.76
641.775	367.21
642.116	431.04
642.458	346.78
642.799	362.1
643.141	364.65
643.482	400.4
643.823	354.44
644.164	390.19
644.506	448.92
644.847	433.6
645.188	410.62
645.529	428.49
645.87	405.51
646.211	369.76
646.552	356.99
646.893	446.36
647.233	425.94
647.574	408.06
647.915	420.83
648.255	354.44
648.596	387.63
648.937	387.63
649.277	456.58
649.618	395.29
649.958	418.28
650.298	415.72
650.639	425.94
650.979	377.42
651.319	336.57
651.659	385.08
651.999	367.21
652.339	367.21
652.679	379.97
653.019	410.62
653.359	397.85
653.699	369.76
654.039	400.4
654.379	410.62
654.719	425.94
655.058	390.19
655.398	364.65
655.737	441.26
656.077	441.26
656.416	387.63
656.756	400.4
657.095	402.95
657.435	471.9
657.774	288.05
658.113	379.97
658.452	369.76
658.792	372.31
659.131	339.12
659.47	390.19
659.809	410.62
660.148	425.94
660.487	408.06
660.826	339.12
661.164	441.26
661.503	379.97
661.842	397.85
662.181	395.29
662.519	379.97
662.858	344.23
663.196	415.72
663.535	349.33
663.873	402.95
664.212	431.04
664.55	484.66
664.888	428.49
665.226	359.55
665.565	433.6
665.903	625.1
666.241	464.24
666.579	441.26
666.917	420.83
667.255	402.95
667.593	385.08
667.931	408.06
668.268	400.4
668.606	344.23
668.944	367.21
669.282	397.85
669.619	446.36
669.957	420.83
670.294	331.46
670.632	369.76
670.969	410.62
671.307	428.49
671.644	395.29
671.981	362.1
672.318	415.72
672.656	400.4
672.993	359.55
673.33	387.63
673.667	362.1
674.004	423.38
674.341	369.76
674.678	400.4
675.015	395.29
675.351	387.63
675.688	382.53
676.025	339.12
676.362	369.76
676.698	346.78
677.035	441.26
677.371	367.21
677.708	405.51
678.044	425.94
678.38	369.76
678.717	446.36
679.053	405.51
679.389	392.74
679.725	372.31
680.062	385.08
680.398	382.53
680.734	413.17
681.07	382.53
681.406	433.6
681.742	377.42
682.077	433.6
682.413	459.13
682.749	428.49
683.085	372.31
683.42	374.87
683.756	428.49
684.091	415.72
684.427	441.26
684.762	428.49
685.098	392.74
685.433	385.08
685.768	418.28
686.104	369.76
686.439	328.91
686.774	372.31
687.109	408.06
687.444	369.76
687.779	400.4
688.114	369.76
688.449	418.28
688.784	379.97
689.119	415.72
689.454	410.62
689.789	466.79
690.123	379.97
690.458	359.55
690.792	382.53
691.127	390.19
691.461	418.28
691.796	385.08
692.13	400.4
692.465	387.63
692.799	354.44
693.133	349.33
693.467	413.17
693.802	364.65
694.136	354.44
694.47	499.98
694.804	390.19
695.138	402.95
695.472	377.42
695.806	408.06
696.139	441.26
696.473	436.15
696.807	428.49
697.141	446.36
697.474	385.08
697.808	441.26
698.141	387.63
698.475	349.33
698.808	336.57
699.142	377.42
699.475	390.19
699.808	410.62
700.142	420.83
700.475	420.83
700.808	395.29
701.141	410.62
701.474	395.29
701.807	354.44
702.14	344.23
702.473	438.7
702.806	441.26
703.139	438.7
703.472	433.6
703.804	362.1
704.137	369.76
704.47	354.44
704.802	400.4
705.135	397.85
705.467	351.89
705.8	415.72
706.132	418.28
706.464	431.04
706.797	431.04
707.129	408.06
707.461	448.92
707.793	369.76
708.125	374.87
708.457	431.04
708.789	364.65
709.121	420.83
709.453	425.94
709.785	392.74
710.117	374.87
710.449	433.6
710.781	374.87
711.112	382.53
711.444	367.21
711.775	367.21
712.107	413.17
712.438	448.92
712.77	316.14
713.101	385.08
713.433	328.91
713.764	341.67
714.095	374.87
714.426	431.04
714.757	397.85
715.089	390.19
715.42	362.1
715.751	356.99
716.082	344.23
716.412	385.08
716.743	395.29
717.074	356.99
717.405	354.44
717.736	397.85
718.066	377.42
718.397	397.85
718.727	395.29
719.058	372.31
719.388	400.4
719.719	431.04
720.049	369.76
720.38	356.99
720.71	356.99
721.04	374.87
721.37	359.55
721.7	420.83
722.031	374.87
722.361	395.29
722.691	464.24
723.021	400.4
723.35	395.29
723.68	428.49
724.01	382.53
724.34	392.74
724.67	420.83
724.999	392.74
725.329	369.76
725.658	413.17
725.988	433.6
726.317	364.65
726.647	397.85
726.976	395.29
727.306	443.81
727.635	397.85
727.964	305.93
728.293	354.44
728.622	326.35
728.952	387.63
729.281	359.55
729.61	354.44
729.939	382.53
730.267	364.65
730.596	339.12
730.925	395.29
731.254	402.95
731.583	408.06
731.911	438.7
732.24	328.91
732.568	362.1
732.897	392.74
733.225	369.76
733.554	385.08
733.882	425.94
734.21	356.99
734.539	356.99
734.867	400.4
735.195	423.38
735.523	418.28
735.851	390.19
736.179	390.19
736.507	456.58
736.835	443.81
737.163	405.51
737.491	436.15
737.819	385.08
738.147	305.93
738.474	408.06
738.802	418.28
739.13	362.1
739.457	300.82
739.785	395.29
740.112	415.72
740.44	349.33
740.767	356.99
741.094	438.7
741.422	336.57
741.749	423.38
742.076	405.51
742.403	344.23
742.73	410.62
743.057	390.19
743.384	392.74
743.711	392.74
744.038	402.95
744.365	446.36
744.692	400.4
745.018	377.42
745.345	351.89
745.672	372.31
745.998	362.1
746.325	436.15
746.651	395.29
746.978	351.89
747.304	408.06
747.631	443.81
747.957	392.74
748.283	382.53
748.61	367.21
748.936	364.65
749.262	372.31
749.588	351.89
749.914	362.1
750.24	354.44
750.566	397.85
750.892	351.89
751.218	382.53
751.543	428.49
751.869	454.02
752.195	395.29
752.521	387.63
752.846	382.53
753.172	385.08
753.497	367.21
753.823	387.63
754.148	400.4
754.473	474.45
754.799	428.49
755.124	359.55
755.449	456.58
755.774	425.94
756.1	377.42
756.425	339.12
756.75	415.72
757.075	397.85
757.4	581.69
757.724	395.29
758.049	471.9
758.374	408.06
758.699	369.76
759.024	420.83
759.348	356.99
759.673	420.83
759.997	400.4
760.322	339.12
760.646	369.76
760.971	395.29
761.295	385.08
761.619	436.15
761.944	379.97
762.268	410.62
762.592	377.42
762.916	382.53
763.24	397.85
763.564	425.94
763.888	410.62
764.212	471.9
764.536	418.28
764.86	400.4
765.184	459.13
765.508	451.47
765.831	487.22
766.155	737.45
766.478	502.54
766.802	471.9
767.126	502.54
767.449	551.05
767.772	533.18
768.096	517.86
768.419	528.07
768.742	528.07
769.066	599.57
769.389	640.42
769.712	648.08
770.035	719.57
770.358	612.33
770.681	688.93
771.004	699.15
771.327	612.33
771.65	678.72
771.972	768.09
772.295	755.32
772.618	755.32
772.941	762.98
773.263	724.68
773.586	808.94
773.908	916.18
774.231	941.72
774.553	949.38
774.875	1074.49
775.198	1059.17
775.52	1005.55
775.842	997.89
776.164	1033.64
776.487	1043.85
776.809	1000.45
777.131	980.02
777.453	995.34
777.775	1054.07
778.096	1145.99
778.418	1176.63
778.74	1074.49
779.062	1087.26
779.384	1217.48
779.705	1294.08
780.027	1416.65
780.348	1380.9
780.67	1368.13
780.991	1431.97
781.313	1572.4
781.634	1643.9
781.955	1549.42
782.277	1518.78
782.598	1518.78
782.919	1580.06
783.24	1569.85
783.561	1597.94
783.882	1546.87
784.203	1562.19
784.524	1659.22
784.845	1613.26
785.166	1531.55
785.487	1608.15
785.807	1666.88
786.128	1618.36
786.449	1636.24
786.769	1682.2
787.09	1827.74
787.41	1932.43
787.731	2108.61
788.051	2162.23
788.372	2215.85
788.692	2300.11
789.012	2254.15
789.332	2169.89
789.653	2323.1
789.973	2422.68
790.293	2402.25
790.613	2195.43
790.933	2093.29
791.253	2231.17
791.573	2085.63
791.893	2121.38
792.212	2167.34
792.532	2177.55
792.852	2093.29
793.171	2039.67
793.491	1924.77
793.811	1835.4
794.13	1845.61
794.45	1840.51
794.769	1776.67
795.088	1822.63
795.408	1643.9
795.727	1751.14
796.046	1830.29
796.365	1845.61
796.684	1771.57
797.004	1712.84
797.323	1843.06
797.642	2254.15
797.96	2307.77
798.279	2333.31
798.598	2266.92
798.917	2282.24
799.236	2088.18
799.554	1993.71
799.873	1883.91
800.192	1998.82
800.51	2129.04
800.829	2067.76
801.147	2085.63
801.466	1965.62
801.784	1863.49
802.102	1725.6
802.421	2093.29
802.739	2172.45
803.057	2169.89
803.375	1894.13
803.693	2024.35
804.011	2203.09
804.329	2307.77
804.647	2215.85
804.965	2139.25
805.283	1983.5
805.601	1843.06
805.918	1866.04
806.236	1707.73
806.554	1674.54
806.871	1738.37
807.189	1827.74
807.507	1986.05
807.824	1932.43
808.141	1763.91
808.459	1523.89
808.776	1452.39
809.093	1368.13
809.411	1263.44
809.728	1276.21
810.045	1375.79
810.362	1375.79
810.679	1283.87
810.996	1337.49
811.313	1406.43
811.63	1378.35
811.947	1245.57
812.264	1368.13
812.58	1202.16
812.897	1286.42
813.214	1197.06
813.53	1232.8
813.847	1304.3
814.163	1306.85
814.48	1232.8
814.796	1258.34
815.113	1271.1
815.429	1189.4
815.745	1074.49
816.061	1209.82
816.378	1048.96
816.694	1061.73
817.01	1056.62
817.326	1115.35
817.642	1015.77
817.958	1015.77
818.274	941.72
818.59	934.06
818.905	870.22
819.221	995.34
819.537	1015.77
819.852	962.14
820.168	1010.66
820.484	982.57
820.799	944.27
821.115	918.74
821.43	860.01
821.745	803.84
822.061	875.33
822.376	898.31
822.691	798.73
823.006	849.8
823.322	857.46
823.637	826.82
823.952	717.02
824.267	722.13
824.582	752.77
824.897	737.45
825.211	747.66
825.526	778.3
825.841	719.57
826.156	791.07
826.47	706.81
826.785	696.59
827.1	691.49
827.414	668.51
827.729	719.57
828.043	665.95
828.357	594.46
828.672	612.33
828.986	545.94
829.3	581.69
829.614	568.92
829.929	538.28
830.243	584.24
830.557	571.48
830.871	512.75
831.185	525.52
831.499	525.52
831.812	502.54
832.126	548.5
832.44	548.5
832.754	566.37
833.067	607.23
833.381	635.31
833.695	607.23
834.008	612.33
834.322	525.52
834.635	607.23
834.948	538.28
835.262	576.58
835.575	477
835.888	535.73
836.201	581.69
836.515	505.09
836.828	438.7
837.141	479.56
837.454	494.88
837.767	425.94
838.08	494.88
838.392	487.22
838.705	431.04
839.018	428.49
839.331	459.13
839.643	474.45
839.956	438.7
840.269	436.15
840.581	471.9
840.894	425.94
841.206	443.81
841.519	533.18
841.831	402.95
842.143	379.97
842.455	438.7
842.768	459.13
843.08	477
843.392	418.28
843.704	436.15
844.016	431.04
844.328	390.19
844.64	454.02
844.952	436.15
845.263	428.49
845.575	395.29
845.887	436.15
846.199	494.88
846.51	454.02
846.822	441.26
847.133	413.17
847.445	351.89
847.756	433.6
848.068	387.63
848.379	461.68
848.69	367.21
849.002	382.53
849.313	377.42
849.624	436.15
849.935	395.29
850.246	451.47
850.557	413.17
850.868	425.94
851.179	418.28
851.49	397.85
851.801	395.29
852.112	367.21
852.422	387.63
852.733	359.55
853.044	425.94
853.354	336.57
853.665	303.37
853.975	400.4
854.286	390.19
854.596	362.1
854.906	425.94
855.217	454.02
855.527	405.51
855.837	344.23
856.147	418.28
856.458	402.95
856.768	438.7
857.078	336.57
857.388	356.99
857.698	379.97
858.007	428.49
858.317	405.51
858.627	379.97
858.937	308.48
859.246	339.12
859.556	395.29
859.866	423.38
860.175	359.55
860.485	374.87
860.794	313.59
861.104	408.06
861.413	397.85
861.722	364.65
862.032	382.53
862.341	438.7
862.65	359.55
862.959	334.01
863.268	387.63
863.577	372.31
863.886	349.33
864.195	415.72
864.504	346.78
864.813	400.4
865.122	402.95
865.43	390.19
865.739	387.63
866.048	425.94
866.356	425.94
866.665	413.17
866.973	420.83
867.282	420.83
867.59	387.63
867.899	448.92
868.207	413.17
868.515	431.04
868.823	395.29
869.132	390.19
869.44	364.65
869.748	377.42
870.056	369.76
870.364	362.1
870.672	323.8
870.98	413.17
871.288	456.58
871.595	400.4
871.903	428.49
872.211	408.06
872.518	356.99
872.826	438.7
873.134	466.79
873.441	374.87
873.749	385.08
874.056	344.23
874.363	385.08
874.671	408.06
874.978	382.53
875.285	408.06
875.592	362.1
875.9	362.1
876.207	425.94
876.514	392.74
876.821	379.97
877.128	367.21
877.435	433.6
877.741	433.6
878.048	346.78
878.355	415.72
878.662	405.51
878.968	402.95
879.275	428.49
879.582	379.97
879.888	402.95
880.195	413.17
880.501	382.53
880.807	349.33
881.114	359.55
881.42	362.1
881.726	356.99
882.032	392.74
882.339	323.8
882.645	328.91
882.951	362.1
883.257	400.4
883.563	382.53
883.869	372.31
884.174	390.19
884.48	392.74
884.786	369.76
885.092	397.85
885.397	336.57
885.703	425.94
886.009	321.25
886.314	374.87
886.62	390.19
886.925	425.94
887.231	351.89
887.536	331.46
887.841	382.53
888.146	390.19
888.452	356.99
888.757	382.53
889.062	387.63
889.367	367.21
889.672	359.55
889.977	456.58
890.282	433.6
890.587	379.97
890.892	390.19
891.196	369.76
891.501	392.74
891.806	418.28
892.11	405.51
892.415	374.87
892.72	405.51
893.024	402.95
893.328	425.94
893.633	448.92
893.937	316.14
894.242	372.31
894.546	397.85
894.85	392.74
895.154	456.58
895.458	451.47
895.762	438.7
896.066	308.48
896.37	474.45
896.674	341.67
896.978	364.65
897.282	339.12
897.586	415.72
897.89	433.6
898.193	392.74
898.497	377.42
898.801	405.51
899.104	336.57
899.408	382.53
899.711	356.99
900.014	410.62
900.318	413.17
900.621	374.87
900.924	397.85
901.228	441.26
901.531	456.58
901.834	408.06
902.137	418.28
902.44	405.51
902.743	446.36
903.046	402.95
903.349	374.87
903.652	374.87
903.955	402.95
904.257	326.35
904.56	408.06
904.863	392.74
905.165	382.53
905.468	408.06
905.77	446.36
906.073	415.72
906.375	433.6
906.678	438.7
906.98	400.4
907.282	464.24
907.584	397.85
907.887	433.6
908.189	359.55
908.491	318.69
908.793	356.99
909.095	298.27
909.397	423.38
909.699	385.08
910.001	400.4
910.302	390.19
910.604	420.83
910.906	382.53
911.208	341.67
911.509	379.97
911.811	415.72
912.112	359.55
912.414	346.78
912.715	336.57
913.017	446.36
913.318	362.1
913.619	436.15
913.92	420.83
914.222	420.83
914.523	382.53
914.824	443.81
915.125	346.78
915.426	395.29
915.727	359.55
916.028	341.67
916.329	351.89
916.63	328.91
916.93	362.1
917.231	364.65
917.532	382.53
917.832	423.38
918.133	369.76
918.434	397.85
918.734	372.31
919.034	408.06
919.335	464.24
919.635	385.08
919.935	405.51
920.236	321.25
920.536	354.44
920.836	402.95
921.136	418.28
921.436	433.6
921.736	397.85
922.036	387.63
922.336	382.53
922.636	364.65
922.936	316.14
923.236	390.19
923.535	410.62
923.835	428.49
924.135	382.53
924.434	410.62
924.734	405.51
925.033	395.29
925.333	400.4
925.632	387.63
925.932	385.08
926.231	356.99
926.53	392.74
926.83	441.26
927.129	420.83
927.428	336.57
927.727	425.94
928.026	438.7
928.325	385.08
928.624	410.62
928.923	349.33
929.222	321.25
929.52	359.55
929.819	362.1
930.118	374.87
930.417	349.33
930.715	341.67
931.014	461.68
931.312	413.17
931.611	418.28
931.909	328.91
932.207	382.53
932.506	431.04
932.804	367.21
933.102	334.01
933.401	415.72
933.699	367.21
933.997	405.51
934.295	405.51
934.593	356.99
934.891	351.89
935.189	385.08
935.487	346.78
935.784	397.85
936.082	441.26
936.38	402.95
936.677	387.63
936.975	379.97
937.273	420.83
937.57	436.15
937.868	402.95
938.165	323.8
938.463	390.19
938.76	328.91
939.057	418.28
939.354	387.63
939.652	387.63
939.949	364.65
940.246	431.04
940.543	349.33
940.84	441.26
941.137	420.83
941.434	387.63
941.731	400.4
942.028	359.55
942.324	395.29
942.621	395.29
942.918	405.51
943.214	328.91
943.511	390.19
943.807	382.53
944.104	443.81
944.4	413.17
944.697	395.29
944.993	385.08
945.29	321.25
945.586	311.03
945.882	428.49
946.178	356.99
946.474	372.31
946.77	316.14
947.066	356.99
947.362	385.08
947.658	349.33
947.954	448.92
948.25	379.97
948.546	410.62
948.842	423.38
949.137	364.65
949.433	364.65
949.729	395.29
950.024	293.16
950.32	356.99
950.615	392.74
950.91	372.31
951.206	356.99
951.501	438.7
951.796	420.83
952.092	387.63
952.387	423.38
952.682	364.65
952.977	390.19
953.272	400.4
953.567	379.97
953.862	346.78
954.157	367.21
954.452	359.55
954.747	374.87
955.041	420.83
955.336	436.15
955.631	374.87
955.925	374.87
956.22	346.78
956.514	328.91
956.809	423.38
957.103	377.42
957.398	387.63
957.692	410.62
957.986	405.51
958.281	382.53
958.575	431.04
958.869	364.65
959.163	364.65
959.457	397.85
959.751	413.17
960.045	374.87
960.339	408.06
960.633	377.42
960.927	400.4
961.221	402.95
961.514	367.21
961.808	374.87
962.102	390.19
962.395	395.29
962.689	362.1
962.982	395.29
963.276	387.63
963.569	349.33
963.862	397.85
964.156	443.81
964.449	341.67
964.742	323.8
965.035	390.19
965.328	400.4
965.622	397.85
965.915	356.99
966.208	356.99
966.5	369.76
966.793	328.91
967.086	436.15
967.379	323.8
967.672	415.72
967.964	390.19
968.257	374.87
968.55	382.53
968.842	443.81
969.135	408.06
969.427	385.08
969.72	402.95
970.012	392.74
970.304	443.81
970.597	374.87
970.889	433.6
971.181	402.95
971.473	392.74
971.765	321.25
972.057	443.81
972.349	377.42
972.641	356.99
972.933	387.63
973.225	397.85
973.517	351.89
973.809	446.36
974.1	405.51
974.392	303.37
974.684	379.97
974.975	356.99
975.267	321.25
975.558	372.31
975.85	459.13
976.141	400.4
976.432	344.23
976.724	418.28
977.015	336.57
977.306	410.62
977.597	400.4
977.888	397.85
978.179	400.4
978.47	328.91
978.761	344.23
979.052	364.65
979.343	425.94
979.634	339.12
979.925	354.44
980.215	423.38
980.506	433.6
980.797	377.42
981.087	364.65
981.378	443.81
981.668	397.85
981.959	321.25
982.249	328.91
982.54	280.39
982.83	387.63
983.12	359.55
983.41	397.85
983.701	385.08
983.991	418.28
984.281	318.69
984.571	461.68
984.861	359.55
985.151	331.46
985.441	395.29
985.73	303.37
986.02	303.37
986.31	318.69
986.6	377.42
986.889	362.1
987.179	392.74
987.469	438.7
987.758	410.62
988.048	308.48
988.337	367.21
988.626	382.53
988.916	395.29
989.205	354.44
989.494	379.97
989.783	385.08
990.073	382.53
990.362	346.78
990.651	459.13
990.94	436.15
991.229	367.21
991.518	362.1
991.806	374.87
992.095	313.59
992.384	387.63
992.673	425.94
992.961	392.74
993.25	408.06
993.539	402.95
993.827	349.33
994.116	341.67
994.404	382.53
994.692	379.97
994.981	362.1
995.269	405.51
995.557	402.95
995.846	321.25
996.134	369.76
996.422	397.85
996.71	438.7
996.998	382.53
997.286	377.42
997.574	400.4
997.862	425.94
998.15	420.83
998.437	351.89
998.725	313.59
999.013	390.19
999.3	418.28
999.588	420.83
999.876	377.42
1000.163	382.53
1000.45	385.08
1000.738	369.76
1001.025	400.4
1001.313	441.26
1001.6	367.21
1001.887	433.6
1002.174	359.55
1002.461	405.51
1002.748	395.29
1003.036	415.72
1003.322	372.31
1003.609	410.62
1003.896	346.78
1004.183	367.21
1004.47	397.85
1004.757	474.45
1005.043	420.83
1005.33	410.62
1005.617	385.08
1005.903	374.87
1006.19	418.28
1006.476	395.29
1006.763	405.51
1007.049	377.42
1007.335	331.46
1007.622	354.44
1007.908	367.21
1008.194	351.89
1008.48	369.76
1008.766	382.53
1009.053	377.42
1009.339	425.94
1009.625	346.78
1009.91	344.23
1010.196	392.74
1010.482	364.65
1010.768	367.21
1011.054	395.29
1011.339	408.06
1011.625	438.7
1011.911	397.85
1012.196	334.01
1012.482	387.63
1012.767	359.55
1013.052	400.4
1013.338	349.33
1013.623	408.06
1013.908	431.04
1014.194	461.68
1014.479	431.04
1014.764	364.65
1015.049	385.08
1015.334	313.59
1015.619	374.87
1015.904	313.59
1016.189	382.53
1016.474	367.21
1016.758	392.74
1017.043	341.67
1017.328	346.78
1017.613	372.31
1017.897	400.4
1018.182	372.31
1018.466	402.95
1018.751	390.19
1019.035	387.63
1019.32	385.08
1019.604	397.85
1019.888	326.35
1020.172	326.35
1020.457	326.35
