Data from 2025-12-03_xpw_interference_micrometer_634_reference_FLMS141361__73__523.txt Node

Date: Wed Dec 03 15:52:26 MST 2025
User: james
Spectrometer: FLMS14136
Trigger mode: 0
Integration Time (sec): 1.000000E-1
Scans to average: 1
Electric dark correction enabled: true
Nonlinearity correction enabled: false
Boxcar width: 0
XAxis mode: Wavelengths
Number of Pixels in Spectrum: 2048
>>>>>Begin Spectral Data<<<<<
339.315	7.02
339.697	7.02
340.079	7.02
340.461	-92.56
340.843	-61.92
341.225	-64.47
341.607	-72.13
341.989	-90.01
342.371	-87.45
342.752	-61.92
343.134	7.02
343.516	-67.03
343.897	-51.71
344.279	-59.37
344.661	55.54
345.042	68.3
345.423	-49.15
345.805	55.54
346.186	91.28
346.567	119.37
346.949	206.19
347.33	239.38
347.711	195.97
348.092	259.81
348.473	175.54
348.854	264.91
349.235	262.36
349.616	341.51
349.997	262.36
350.378	351.73
350.758	331.3
351.139	364.49
351.52	400.24
351.9	384.92
352.281	364.49
352.661	420.67
353.042	395.14
353.422	407.9
353.803	446.2
354.183	405.35
354.563	418.12
354.943	420.67
355.324	418.12
355.704	390.03
356.084	461.52
356.464	397.69
356.844	448.76
357.224	433.44
357.603	433.44
357.983	387.48
358.363	499.82
358.743	382.37
359.122	384.92
359.502	456.42
359.882	438.54
360.261	413.01
360.641	374.71
361.02	374.71
361.399	395.14
361.779	377.26
362.158	420.67
362.537	374.71
362.916	415.56
363.296	400.24
363.675	367.05
364.054	361.94
364.433	364.49
364.812	344.07
365.19	351.73
365.569	305.77
365.948	338.96
366.327	354.28
366.705	308.32
367.084	364.49
367.463	356.83
367.841	336.41
368.22	369.6
368.598	382.37
368.977	415.56
369.355	367.05
369.733	372.15
370.111	397.69
370.49	328.75
370.868	384.92
371.246	387.48
371.624	303.21
372.002	336.41
372.38	351.73
372.758	369.6
373.136	356.83
373.513	323.64
373.891	387.48
374.269	410.46
374.646	402.8
375.024	423.22
375.402	359.39
375.779	428.33
376.157	382.37
376.534	400.24
376.911	420.67
377.289	387.48
377.666	372.15
378.043	354.28
378.42	356.83
378.797	321.09
379.175	351.73
379.552	446.2
379.929	390.03
380.305	326.19
380.682	338.96
381.059	400.24
381.436	405.35
381.813	413.01
382.189	361.94
382.566	361.94
382.943	372.15
383.319	451.31
383.696	384.92
384.072	420.67
384.448	313.43
384.825	364.49
385.201	341.51
385.577	328.75
385.953	387.48
386.329	441.1
386.706	425.78
387.082	395.14
387.458	331.3
387.834	377.26
388.209	367.05
388.585	338.96
388.961	430.88
389.337	395.14
389.713	377.26
390.088	397.69
390.464	356.83
390.839	341.51
391.215	384.92
391.59	428.33
391.966	413.01
392.341	346.62
392.716	267.47
393.092	395.14
393.467	428.33
393.842	400.24
394.217	387.48
394.592	387.48
394.967	379.81
395.342	458.97
395.717	407.9
396.092	428.33
396.467	458.97
396.841	418.12
397.216	413.01
397.591	387.48
397.965	392.58
398.34	382.37
398.714	387.48
399.089	390.03
399.463	356.83
399.838	384.92
400.212	374.71
400.586	407.9
400.961	372.15
401.335	392.58
401.709	354.28
402.083	384.92
402.457	387.48
402.831	415.56
403.205	384.92
403.579	384.92
403.953	446.2
404.326	453.86
404.7	384.92
405.074	395.14
405.447	410.46
405.821	405.35
406.195	369.6
406.568	456.42
406.942	527.91
407.315	397.69
407.688	349.17
408.062	367.05
408.435	379.81
408.808	395.14
409.181	423.22
409.554	453.86
409.927	377.26
410.3	392.58
410.673	379.81
411.046	395.14
411.419	466.63
411.792	407.9
412.165	425.78
412.537	372.15
412.91	405.35
413.283	364.49
413.655	356.83
414.028	415.56
414.4	369.6
414.773	390.03
415.145	405.35
415.517	372.15
415.889	379.81
416.262	397.69
416.634	372.15
417.006	318.53
417.378	390.03
417.75	397.69
418.122	428.33
418.494	425.78
418.866	428.33
419.238	315.98
419.609	464.08
419.981	423.22
420.353	364.49
420.725	361.94
421.096	356.83
421.468	466.63
421.839	471.74
422.211	435.99
422.582	420.67
422.953	443.65
423.325	425.78
423.696	438.54
424.067	405.35
424.438	336.41
424.809	395.14
425.18	405.35
425.551	392.58
425.922	369.6
426.293	321.09
426.664	420.67
427.035	435.99
427.406	466.63
427.776	382.37
428.147	420.67
428.518	428.33
428.888	384.92
429.259	461.52
429.629	476.84
429.999	387.48
430.37	407.9
430.74	512.59
431.11	438.54
431.481	466.63
431.851	413.01
432.221	453.86
432.591	356.83
432.961	397.69
433.331	405.35
433.701	369.6
434.071	410.46
434.441	392.58
434.81	407.9
435.18	390.03
435.55	392.58
435.919	418.12
436.289	369.6
436.658	377.26
437.028	413.01
437.397	456.42
437.767	438.54
438.136	469.18
438.505	402.8
438.875	390.03
439.244	415.56
439.613	418.12
439.982	397.69
440.351	369.6
440.72	458.97
441.089	359.39
441.458	372.15
441.827	433.44
442.196	443.65
442.564	494.72
442.933	423.22
443.302	476.84
443.67	435.99
444.039	405.35
444.407	405.35
444.776	410.46
445.144	338.96
445.513	338.96
445.881	354.28
446.249	379.81
446.617	402.8
446.986	423.22
447.354	356.83
447.722	410.46
448.09	372.15
448.458	359.39
448.826	415.56
449.194	423.22
449.561	438.54
449.929	410.46
450.297	438.54
450.665	395.14
451.032	415.56
451.4	402.8
451.767	382.37
452.135	453.86
452.502	415.56
452.87	390.03
453.237	410.46
453.604	430.88
453.971	390.03
454.339	344.07
454.706	448.76
455.073	433.44
455.44	402.8
455.807	469.18
456.174	364.49
456.541	402.8
456.908	390.03
457.274	384.92
457.641	392.58
458.008	390.03
458.374	420.67
458.741	510.04
459.108	400.24
459.474	430.88
459.841	433.44
460.207	372.15
460.573	423.22
460.94	448.76
461.306	387.48
461.672	430.88
462.038	415.56
462.404	481.95
462.771	402.8
463.137	418.12
463.503	402.8
463.868	466.63
464.234	423.22
464.6	333.85
464.966	382.37
465.332	384.92
465.697	425.78
466.063	395.14
466.429	400.24
466.794	390.03
467.16	415.56
467.525	384.92
467.89	420.67
468.256	458.97
468.621	397.69
468.986	400.24
469.351	430.88
469.717	418.12
470.082	448.76
470.447	361.94
470.812	387.48
471.177	387.48
471.542	377.26
471.906	402.8
472.271	390.03
472.636	361.94
473.001	464.08
473.365	413.01
473.73	323.64
474.094	443.65
474.459	461.52
474.823	451.31
475.188	466.63
475.552	400.24
475.917	425.78
476.281	428.33
476.645	326.19
477.009	395.14
477.373	423.22
477.737	456.42
478.101	413.01
478.465	387.48
478.829	364.49
479.193	497.27
479.557	471.74
479.921	400.24
480.284	413.01
480.648	390.03
481.012	395.14
481.375	356.83
481.739	361.94
482.102	405.35
482.466	407.9
482.829	502.38
483.193	443.65
483.556	384.92
483.919	420.67
484.282	336.41
484.645	351.73
485.009	446.2
485.372	451.31
485.735	448.76
486.098	464.08
486.46	410.46
486.823	446.2
487.186	351.73
487.549	484.5
487.912	441.1
488.274	433.44
488.637	415.56
488.999	441.1
489.362	502.38
489.724	499.82
490.087	517.7
490.449	425.78
490.811	428.33
491.174	382.37
491.536	418.12
491.898	425.78
492.26	451.31
492.622	484.5
492.984	441.1
493.346	423.22
493.708	481.95
494.07	474.29
494.432	415.56
494.794	407.9
495.155	456.42
495.517	489.61
495.879	420.67
496.24	435.99
496.602	413.01
496.963	395.14
497.325	387.48
497.686	458.97
498.048	390.03
498.409	420.67
498.77	395.14
499.131	443.65
499.492	407.9
499.854	438.54
500.215	438.54
500.576	441.1
500.937	441.1
501.298	428.33
501.658	407.9
502.019	418.12
502.38	433.44
502.741	413.01
503.101	423.22
503.462	387.48
503.823	433.44
504.183	517.7
504.543	461.52
504.904	410.46
505.264	448.76
505.625	400.24
505.985	410.46
506.345	464.08
506.705	438.54
507.065	438.54
507.426	372.15
507.786	377.26
508.146	451.31
508.505	423.22
508.865	341.51
509.225	415.56
509.585	494.72
509.945	453.86
510.304	451.31
510.664	400.24
511.024	390.03
511.383	400.24
511.743	374.71
512.102	453.86
512.462	351.73
512.821	428.33
513.18	448.76
513.539	425.78
513.899	435.99
514.258	430.88
514.617	443.65
514.976	474.29
515.335	405.35
515.694	384.92
516.053	413.01
516.412	466.63
516.771	461.52
517.129	410.46
517.488	435.99
517.847	425.78
518.205	420.67
518.564	428.33
518.922	418.12
519.281	487.06
519.639	420.67
519.998	438.54
520.356	367.05
520.714	469.18
521.073	430.88
521.431	361.94
521.789	428.33
522.147	413.01
522.505	413.01
522.863	443.65
523.221	461.52
523.579	464.08
523.937	446.2
524.295	425.78
524.652	430.88
525.01	458.97
525.368	415.56
525.725	471.74
526.083	446.2
526.44	479.4
526.798	418.12
527.155	400.24
527.513	433.44
527.87	435.99
528.227	458.97
528.584	464.08
528.942	443.65
529.299	308.32
529.656	476.84
530.013	428.33
530.37	415.56
530.727	461.52
531.083	458.97
531.44	446.2
531.797	474.29
532.154	430.88
532.511	387.48
532.867	387.48
533.224	405.35
533.58	456.42
533.937	448.76
534.293	469.18
534.65	433.44
535.006	502.38
535.362	451.31
535.718	489.61
536.075	453.86
536.431	395.14
536.787	392.58
537.143	423.22
537.499	433.44
537.855	471.74
538.211	400.24
538.567	451.31
538.923	446.2
539.278	395.14
539.634	479.4
539.99	382.37
540.345	448.76
540.701	390.03
541.056	390.03
541.412	367.05
541.767	384.92
542.123	397.69
542.478	433.44
542.833	351.73
543.188	382.37
543.544	420.67
543.899	438.54
544.254	451.31
544.609	400.24
544.964	405.35
545.319	402.8
545.674	458.97
546.029	407.9
546.383	479.4
546.738	390.03
547.093	400.24
547.447	443.65
547.802	392.58
548.157	377.26
548.511	423.22
548.866	377.26
549.22	446.2
549.574	420.67
549.929	443.65
550.283	441.1
550.637	423.22
550.991	451.31
551.345	397.69
551.699	410.46
552.053	418.12
552.407	476.84
552.761	407.9
553.115	458.97
553.469	494.72
553.823	428.33
554.176	400.24
554.53	494.72
554.884	423.22
555.237	645.37
555.591	458.97
555.944	453.86
556.298	395.14
556.651	410.46
557.005	489.61
557.358	499.82
557.711	400.24
558.064	400.24
558.417	387.48
558.771	489.61
559.124	433.44
559.477	448.76
559.83	413.01
560.182	418.12
560.535	453.86
560.888	405.35
561.241	382.37
561.594	415.56
561.946	402.8
562.299	405.35
562.651	400.24
563.004	405.35
563.356	400.24
563.709	384.92
564.061	471.74
564.413	464.08
564.766	430.88
565.118	418.12
565.47	344.07
565.822	453.86
566.174	354.28
566.526	443.65
566.878	438.54
567.23	466.63
567.582	410.46
567.934	420.67
568.286	471.74
568.638	392.58
568.989	379.81
569.341	413.01
569.693	402.8
570.044	433.44
570.396	379.81
570.747	413.01
571.098	400.24
571.45	430.88
571.801	369.6
572.152	367.05
572.504	430.88
572.855	423.22
573.206	382.37
573.557	458.97
573.908	356.83
574.259	382.37
574.61	349.17
574.961	456.42
575.311	479.4
575.662	453.86
576.013	451.31
576.364	397.69
576.714	384.92
577.065	418.12
577.415	395.14
577.766	407.9
578.116	438.54
578.467	415.56
578.817	346.62
579.167	435.99
579.518	397.69
579.868	423.22
580.218	487.06
580.568	448.76
580.918	400.24
581.268	433.44
581.618	410.46
581.968	395.14
582.318	402.8
582.668	458.97
583.017	379.81
583.367	448.76
583.717	451.31
584.066	364.49
584.416	484.5
584.765	433.44
585.115	448.76
585.464	356.83
585.814	364.49
586.163	435.99
586.512	374.71
586.862	407.9
587.211	367.05
587.56	451.31
587.909	446.2
588.258	456.42
588.607	489.61
588.956	413.01
589.305	484.5
589.654	451.31
590.002	456.42
590.351	423.22
590.7	430.88
591.048	430.88
591.397	443.65
591.746	410.46
592.094	410.46
592.443	407.9
592.791	469.18
593.139	420.67
593.488	453.86
593.836	438.54
594.184	469.18
594.532	438.54
594.88	448.76
595.228	471.74
595.576	428.33
595.924	448.76
596.272	413.01
596.62	372.15
596.968	423.22
597.316	382.37
597.664	423.22
598.011	446.2
598.359	435.99
598.706	461.52
599.054	446.2
599.402	395.14
599.749	415.56
600.096	400.24
600.444	402.8
600.791	384.92
601.138	410.46
601.485	415.56
601.833	382.37
602.18	379.81
602.527	405.35
602.874	413.01
603.221	425.78
603.568	374.71
603.914	469.18
604.261	410.46
604.608	400.24
604.955	395.14
605.301	384.92
605.648	433.44
605.995	464.08
606.341	469.18
606.688	395.14
607.034	405.35
607.38	359.39
607.727	481.95
608.073	464.08
608.419	405.35
608.765	384.92
609.112	361.94
609.458	372.15
609.804	374.71
610.15	425.78
610.496	497.27
610.842	400.24
611.187	435.99
611.533	451.31
611.879	430.88
612.225	502.38
612.57	499.82
612.916	430.88
613.261	346.62
613.607	361.94
613.952	448.76
614.298	331.3
614.643	443.65
614.989	423.22
615.334	349.17
615.679	423.22
616.024	441.1
616.369	369.6
616.714	395.14
617.059	413.01
617.404	323.64
617.749	423.22
618.094	464.08
618.439	461.52
618.784	446.2
619.129	451.31
619.473	364.49
619.818	410.46
620.163	423.22
620.507	384.92
620.852	402.8
621.196	461.52
621.54	453.86
621.885	369.6
622.229	395.14
622.573	430.88
622.918	397.69
623.262	476.84
623.606	377.26
623.95	415.56
624.294	402.8
624.638	418.12
624.982	400.24
625.326	413.01
625.67	425.78
626.013	379.81
626.357	453.86
626.701	356.83
627.044	441.1
627.388	441.1
627.731	407.9
628.075	435.99
628.418	397.69
628.762	418.12
629.105	443.65
629.448	397.69
629.792	349.17
630.135	438.54
630.478	402.8
630.821	374.71
631.164	361.94
631.507	489.61
631.85	413.01
632.193	374.71
632.536	390.03
632.879	405.35
633.221	428.33
633.564	476.84
633.907	435.99
634.249	418.12
634.592	435.99
634.935	448.76
635.277	446.2
635.619	481.95
635.962	464.08
636.304	354.28
636.646	372.15
636.989	405.35
637.331	351.73
637.673	461.52
638.015	461.52
638.357	400.24
638.699	410.46
639.041	390.03
639.383	413.01
639.725	423.22
640.067	423.22
640.408	402.8
640.75	387.48
641.092	400.24
641.433	395.14
641.775	405.35
642.116	364.49
642.458	469.18
642.799	407.9
643.141	390.03
643.482	379.81
643.823	446.2
644.164	448.76
644.506	443.65
644.847	433.44
645.188	397.69
645.529	369.6
645.87	438.54
646.211	497.27
646.552	497.27
646.893	438.54
647.233	397.69
647.574	356.83
647.915	446.2
648.255	400.24
648.596	407.9
648.937	361.94
649.277	407.9
649.618	481.95
649.958	438.54
650.298	438.54
650.639	441.1
650.979	361.94
651.319	387.48
651.659	402.8
651.999	367.05
652.339	423.22
652.679	395.14
653.019	346.62
653.359	359.39
653.699	336.41
654.039	441.1
654.379	415.56
654.719	397.69
655.058	407.9
655.398	428.33
655.737	423.22
656.077	466.63
656.416	443.65
656.756	392.58
657.095	413.01
657.435	369.6
657.774	435.99
658.113	487.06
658.452	400.24
658.792	374.71
659.131	458.97
659.47	359.39
659.809	451.31
660.148	443.65
660.487	425.78
660.826	397.69
661.164	469.18
661.503	413.01
661.842	420.67
662.181	364.49
662.519	382.37
662.858	418.12
663.196	338.96
663.535	418.12
663.873	420.67
664.212	374.71
664.55	453.86
664.888	397.69
665.226	443.65
665.565	474.29
665.903	558.55
666.241	395.14
666.579	407.9
666.917	425.78
667.255	390.03
667.593	400.24
667.931	492.16
668.268	464.08
668.606	369.6
668.944	361.94
669.282	392.58
669.619	387.48
669.957	354.28
670.294	402.8
670.632	441.1
670.969	441.1
671.307	402.8
671.644	430.88
671.981	461.52
672.318	413.01
672.656	464.08
672.993	435.99
673.33	438.54
673.667	402.8
674.004	410.46
674.341	384.92
674.678	359.39
675.015	402.8
675.351	390.03
675.688	387.48
676.025	487.06
676.362	377.26
676.698	384.92
677.035	423.22
677.371	402.8
677.708	415.56
678.044	453.86
678.38	430.88
678.717	415.56
679.053	384.92
679.389	425.78
679.725	425.78
680.062	469.18
680.398	461.52
680.734	390.03
681.07	425.78
681.406	430.88
681.742	397.69
682.077	315.98
682.413	407.9
682.749	390.03
683.085	351.73
683.42	392.58
683.756	433.44
684.091	356.83
684.427	341.51
684.762	410.46
685.098	415.56
685.433	405.35
685.768	428.33
686.104	425.78
686.439	443.65
686.774	410.46
687.109	446.2
687.444	438.54
687.779	379.81
688.114	390.03
688.449	438.54
688.784	384.92
689.119	351.73
689.454	397.69
689.789	484.5
690.123	392.58
690.458	420.67
690.792	441.1
691.127	428.33
691.461	369.6
691.796	374.71
692.13	407.9
692.465	407.9
692.799	453.86
693.133	413.01
693.467	446.2
693.802	474.29
694.136	453.86
694.47	395.14
694.804	481.95
695.138	425.78
695.472	410.46
695.806	415.56
696.139	430.88
696.473	428.33
696.807	415.56
697.141	382.37
697.474	415.56
697.808	392.58
698.141	367.05
698.475	359.39
698.808	374.71
699.142	379.81
699.475	425.78
699.808	484.5
700.142	402.8
700.475	369.6
700.808	448.76
701.141	435.99
701.474	425.78
701.807	405.35
702.14	448.76
702.473	433.44
702.806	410.46
703.139	359.39
703.472	420.67
703.804	433.44
704.137	405.35
704.47	428.33
704.802	407.9
705.135	361.94
705.467	410.46
705.8	318.53
706.132	392.58
706.464	402.8
706.797	400.24
707.129	413.01
707.461	387.48
707.793	349.17
708.125	420.67
708.457	402.8
708.789	328.75
709.121	397.69
709.453	438.54
709.785	423.22
710.117	410.46
710.449	423.22
710.781	438.54
711.112	377.26
711.444	349.17
711.775	453.86
712.107	430.88
712.438	392.58
712.77	372.15
713.101	423.22
713.433	323.64
713.764	407.9
714.095	384.92
714.426	354.28
714.757	430.88
715.089	435.99
715.42	458.97
715.751	410.46
716.082	476.84
716.412	464.08
716.743	390.03
717.074	377.26
717.405	361.94
717.736	379.81
718.066	359.39
718.397	443.65
718.727	428.33
719.058	390.03
719.388	474.29
719.719	387.48
720.049	374.71
720.38	469.18
720.71	443.65
721.04	451.31
721.37	402.8
721.7	405.35
722.031	351.73
722.361	425.78
722.691	407.9
723.021	425.78
723.35	415.56
723.68	461.52
724.01	415.56
724.34	387.48
724.67	425.78
724.999	405.35
725.329	433.44
725.658	384.92
725.988	402.8
726.317	476.84
726.647	435.99
726.976	456.42
727.306	410.46
727.635	379.81
727.964	338.96
728.293	400.24
728.622	420.67
728.952	494.72
729.281	438.54
729.61	443.65
729.939	428.33
730.267	433.44
730.596	395.14
730.925	392.58
731.254	364.49
731.583	397.69
731.911	390.03
732.24	415.56
732.568	410.46
732.897	405.35
733.225	361.94
733.554	464.08
733.882	456.42
734.21	433.44
734.539	400.24
734.867	390.03
735.195	420.67
735.523	435.99
735.851	354.28
736.179	438.54
736.507	413.01
736.835	387.48
737.163	349.17
737.491	379.81
737.819	402.8
738.147	400.24
738.474	372.15
738.802	438.54
739.13	407.9
739.457	405.35
739.785	382.37
740.112	430.88
740.44	423.22
740.767	407.9
741.094	415.56
741.422	354.28
741.749	387.48
742.076	410.46
742.403	346.62
742.73	430.88
743.057	451.31
743.384	402.8
743.711	382.37
744.038	356.83
744.365	413.01
744.692	367.05
745.018	441.1
745.345	415.56
745.672	397.69
745.998	420.67
746.325	382.37
746.651	443.65
746.978	430.88
747.304	433.44
747.631	392.58
747.957	400.24
748.283	390.03
748.61	413.01
748.936	415.56
749.262	400.24
749.588	397.69
749.914	402.8
750.24	384.92
750.566	369.6
750.892	458.97
751.218	423.22
751.543	354.28
751.869	420.67
752.195	433.44
752.521	382.37
752.846	425.78
753.172	374.71
753.497	341.51
753.823	451.31
754.148	446.2
754.473	384.92
754.799	344.07
755.124	384.92
755.449	397.69
755.774	405.35
756.1	410.46
756.425	425.78
756.75	359.39
757.075	443.65
757.4	553.44
757.724	433.44
758.049	379.81
758.374	361.94
758.699	400.24
759.024	402.8
759.348	466.63
759.673	392.58
759.997	420.67
760.322	382.37
760.646	425.78
760.971	451.31
761.295	425.78
761.619	413.01
761.944	410.46
762.268	415.56
762.592	397.69
762.916	425.78
763.24	481.95
763.564	428.33
763.888	441.1
764.212	479.4
764.536	451.31
764.86	499.82
765.184	499.82
765.508	499.82
765.831	530.46
766.155	765.38
766.478	535.57
766.802	489.61
767.126	530.46
767.449	576.43
767.772	586.64
768.096	630.05
768.419	647.92
768.742	596.85
769.066	640.26
769.389	589.19
769.712	604.51
770.035	624.94
770.358	716.86
770.681	691.33
771.004	757.71
771.327	739.84
771.65	811.34
771.972	801.12
772.295	762.82
772.618	739.84
772.941	834.32
773.263	844.53
773.586	880.28
773.908	916.02
774.231	1007.95
774.553	1038.59
774.875	1094.76
775.198	1153.49
775.52	1089.65
775.842	1120.29
776.164	977.31
776.487	1066.67
776.809	1081.99
777.131	1053.91
777.453	1053.91
777.775	1074.33
778.096	1191.79
778.418	1204.56
778.74	1036.03
779.062	1112.63
779.384	1189.24
779.705	1375.63
780.027	1393.51
780.348	1365.42
780.67	1470.11
780.991	1559.48
781.313	1641.18
781.634	1707.57
781.955	1595.22
782.277	1500.75
782.598	1651.4
782.919	1656.5
783.24	1664.16
783.561	1689.7
783.882	1623.31
784.203	1799.49
784.524	1715.23
784.845	1699.91
785.166	1697.36
785.487	1740.77
785.807	1725.45
786.128	1694.8
786.449	1728
786.769	1740.77
787.09	1901.63
787.41	1985.89
787.731	2093.13
788.051	2271.87
788.372	2274.42
788.692	2302.51
789.012	2381.66
789.332	2307.62
789.653	2381.66
789.973	2509.33
790.293	2437.84
790.613	2312.72
790.933	2241.23
791.253	2190.16
791.573	2187.61
791.893	2248.89
792.212	2121.22
792.532	2156.97
792.852	2167.18
793.171	2036.96
793.491	2031.85
793.811	2034.4
794.13	1945.04
794.45	1888.86
794.769	1717.79
795.088	1776.51
795.408	1914.4
795.727	1901.63
796.046	1786.73
796.365	1807.15
796.684	1858.22
797.004	1738.21
797.323	2011.42
797.642	2236.12
797.96	2445.5
798.279	2516.99
798.598	2338.26
798.917	2389.32
799.236	2159.52
799.554	2121.22
799.873	2008.87
800.192	2057.38
800.51	2149.31
800.829	2100.79
801.147	2059.94
801.466	1916.95
801.784	1978.23
802.102	1911.84
802.421	2095.69
802.739	2213.14
803.057	2223.35
803.375	2136.54
803.693	2128.88
804.011	2363.79
804.329	2478.69
804.647	2386.77
804.965	2225.91
805.283	2095.69
805.601	1957.8
805.918	1952.7
806.236	1733.11
806.554	1735.66
806.871	1807.15
807.189	1896.52
807.507	1996.1
807.824	1968.02
808.141	1914.4
808.459	1699.91
808.776	1590.12
809.093	1513.51
809.411	1411.38
809.728	1436.91
810.045	1339.89
810.362	1396.06
810.679	1373.08
810.996	1424.15
811.313	1329.67
811.63	1485.43
811.947	1411.38
812.264	1360.31
812.58	1344.99
812.897	1352.65
813.214	1288.82
813.53	1276.05
813.847	1301.58
814.163	1344.99
814.48	1268.39
814.796	1224.98
815.113	1199.45
815.429	1181.58
815.745	1191.79
816.061	1235.2
816.378	1102.42
816.694	1120.29
817.01	1150.94
817.326	1156.04
817.642	1138.17
817.958	1030.93
818.274	951.77
818.59	967.09
818.905	877.72
819.221	997.73
819.537	1046.25
819.852	949.22
820.168	1018.16
820.484	908.36
820.799	977.31
821.115	1013.05
821.43	882.83
821.745	890.49
822.061	831.76
822.376	859.85
822.691	898.15
823.006	819
823.322	765.38
823.637	793.46
823.952	744.95
824.267	739.84
824.582	872.62
824.897	877.72
825.211	864.96
825.526	903.26
825.841	813.89
826.156	757.71
826.47	790.91
826.785	742.39
827.1	762.82
827.414	747.5
827.729	704.09
828.043	706.65
828.357	696.43
828.672	665.79
828.986	683.67
829.3	663.24
829.614	627.49
829.929	622.39
830.243	586.64
830.557	571.32
830.871	627.49
831.185	492.16
831.499	566.21
831.812	558.55
832.126	504.93
832.44	609.62
832.754	601.96
833.067	655.58
833.381	548.34
833.695	589.19
834.008	573.87
834.322	581.53
834.635	571.32
834.948	563.66
835.262	538.12
835.575	525.36
835.888	494.72
836.201	607.07
836.515	540.68
836.828	497.27
837.141	533.02
837.454	543.23
837.767	481.95
838.08	499.82
838.392	471.74
838.705	504.93
839.018	469.18
839.331	484.5
839.643	499.82
839.956	510.04
840.269	538.12
840.581	479.4
840.894	507.48
841.206	469.18
841.519	601.96
841.831	456.42
842.143	469.18
842.455	471.74
842.768	418.12
843.08	433.44
843.392	430.88
843.704	464.08
844.016	479.4
844.328	392.58
844.64	461.52
844.952	525.36
845.263	466.63
845.575	489.61
845.887	476.84
846.199	458.97
846.51	461.52
846.822	446.2
847.133	443.65
847.445	384.92
847.756	367.05
848.068	428.33
848.379	354.28
848.69	425.78
849.002	456.42
849.313	474.29
849.624	377.26
849.935	349.17
850.246	425.78
850.557	420.67
850.868	451.31
851.179	438.54
851.49	428.33
851.801	471.74
852.112	484.5
852.422	474.29
852.733	423.22
853.044	346.62
853.354	372.15
853.665	395.14
853.975	410.46
854.286	400.24
854.596	458.97
854.906	400.24
855.217	435.99
855.527	448.76
855.837	438.54
856.147	341.51
856.458	428.33
856.768	410.46
857.078	351.73
857.388	413.01
857.698	466.63
858.007	397.69
858.317	474.29
858.627	435.99
858.937	441.1
859.246	410.46
859.556	387.48
859.866	420.67
860.175	405.35
860.485	433.44
860.794	372.15
861.104	387.48
861.413	438.54
861.722	364.49
862.032	430.88
862.341	333.85
862.65	361.94
862.959	402.8
863.268	435.99
863.577	402.8
863.886	354.28
864.195	410.46
864.504	461.52
864.813	318.53
865.122	344.07
865.43	384.92
865.739	361.94
866.048	428.33
866.356	407.9
866.665	405.35
866.973	369.6
867.282	390.03
867.59	397.69
867.899	407.9
868.207	441.1
868.515	382.37
868.823	382.37
869.132	397.69
869.44	392.58
869.748	448.76
870.056	446.2
870.364	384.92
870.672	372.15
870.98	430.88
871.288	499.82
871.595	471.74
871.903	410.46
872.211	451.31
872.518	346.62
872.826	530.46
873.134	428.33
873.441	443.65
873.749	433.44
874.056	474.29
874.363	418.12
874.671	392.58
874.978	395.14
875.285	471.74
875.592	451.31
875.9	392.58
876.207	435.99
876.514	481.95
876.821	458.97
877.128	453.86
877.435	420.67
877.741	420.67
878.048	346.62
878.355	346.62
878.662	446.2
878.968	423.22
879.275	443.65
879.582	413.01
879.888	351.73
880.195	379.81
880.501	390.03
880.807	400.24
881.114	451.31
881.42	384.92
881.726	392.58
882.032	423.22
882.339	397.69
882.645	433.44
882.951	410.46
883.257	425.78
883.563	430.88
883.869	453.86
884.174	435.99
884.48	453.86
884.786	481.95
885.092	382.37
885.397	369.6
885.703	359.39
886.009	359.39
886.314	402.8
886.62	374.71
886.925	377.26
887.231	448.76
887.536	458.97
887.841	435.99
888.146	451.31
888.452	387.48
888.757	377.26
889.062	387.48
889.367	395.14
889.672	428.33
889.977	448.76
890.282	428.33
890.587	448.76
890.892	395.14
891.196	336.41
891.501	387.48
891.806	484.5
892.11	448.76
892.415	384.92
892.72	397.69
893.024	407.9
893.328	512.59
893.633	392.58
893.937	410.46
894.242	418.12
894.546	377.26
894.85	321.09
895.154	364.49
895.458	356.83
895.762	321.09
896.066	377.26
896.37	384.92
896.674	384.92
896.978	448.76
897.282	415.56
897.586	407.9
897.89	395.14
898.193	354.28
898.497	423.22
898.801	425.78
899.104	428.33
899.408	379.81
899.711	344.07
900.014	430.88
900.318	481.95
900.621	423.22
900.924	402.8
901.228	400.24
901.531	418.12
901.834	397.69
902.137	425.78
902.44	354.28
902.743	346.62
903.046	377.26
903.349	361.94
903.652	456.42
903.955	333.85
904.257	418.12
904.56	367.05
904.863	395.14
905.165	390.03
905.468	384.92
905.77	438.54
906.073	479.4
906.375	364.49
906.678	341.51
906.98	303.21
907.282	413.01
907.584	356.83
907.887	466.63
908.189	441.1
908.491	410.46
908.793	481.95
909.095	387.48
909.397	497.27
909.699	377.26
910.001	413.01
910.302	387.48
910.604	458.97
910.906	359.39
911.208	418.12
911.509	415.56
911.811	392.58
912.112	377.26
912.414	377.26
912.715	402.8
913.017	344.07
913.318	481.95
913.619	377.26
913.92	341.51
914.222	369.6
914.523	405.35
914.824	387.48
915.125	413.01
915.426	430.88
915.727	443.65
916.028	379.81
916.329	351.73
916.63	349.17
916.93	407.9
917.231	384.92
917.532	346.62
917.832	425.78
918.133	458.97
918.434	458.97
918.734	415.56
919.034	438.54
919.335	374.71
919.635	428.33
919.935	392.58
920.236	451.31
920.536	413.01
920.836	415.56
921.136	448.76
921.436	481.95
921.736	407.9
922.036	308.32
922.336	430.88
922.636	438.54
922.936	407.9
923.236	367.05
923.535	321.09
923.835	392.58
924.135	392.58
924.434	397.69
924.734	367.05
925.033	405.35
925.333	425.78
925.632	446.2
925.932	428.33
926.231	377.26
926.53	420.67
926.83	461.52
927.129	461.52
927.428	382.37
927.727	413.01
928.026	418.12
928.325	489.61
928.624	474.29
928.923	425.78
929.222	466.63
929.52	372.15
929.819	402.8
930.118	390.03
930.417	359.39
930.715	328.75
931.014	420.67
931.312	492.16
931.611	382.37
931.909	458.97
932.207	418.12
932.506	407.9
932.804	448.76
933.102	441.1
933.401	433.44
933.699	402.8
933.997	428.33
934.295	377.26
934.593	361.94
934.891	441.1
935.189	435.99
935.487	428.33
935.784	550.89
936.082	456.42
936.38	372.15
936.677	338.96
936.975	377.26
937.273	418.12
937.57	395.14
937.868	435.99
938.165	428.33
938.463	341.51
938.76	392.58
939.057	430.88
939.354	374.71
939.652	413.01
939.949	349.17
940.246	379.81
940.543	382.37
940.84	400.24
941.137	435.99
941.434	361.94
941.731	438.54
942.028	420.67
942.324	382.37
942.621	374.71
942.918	400.24
943.214	372.15
943.511	387.48
943.807	338.96
944.104	369.6
944.4	438.54
944.697	354.28
944.993	423.22
945.29	361.94
945.586	423.22
945.882	423.22
946.178	384.92
946.474	354.28
946.77	379.81
947.066	395.14
947.362	384.92
947.658	379.81
947.954	446.2
948.25	351.73
948.546	390.03
948.842	323.64
949.137	387.48
949.433	395.14
949.729	405.35
950.024	387.48
950.32	344.07
950.615	418.12
950.91	405.35
951.206	461.52
951.501	407.9
951.796	420.67
952.092	433.44
952.387	384.92
952.682	372.15
952.977	372.15
953.272	356.83
953.567	435.99
953.862	344.07
954.157	405.35
954.452	446.2
954.747	433.44
955.041	435.99
955.336	415.56
955.631	410.46
955.925	400.24
956.22	364.49
956.514	303.21
956.809	333.85
957.103	367.05
957.398	407.9
957.692	390.03
957.986	364.49
958.281	359.39
958.575	407.9
958.869	407.9
959.163	407.9
959.457	364.49
959.751	418.12
960.045	423.22
960.339	433.44
960.633	428.33
960.927	415.56
961.221	484.5
961.514	395.14
961.808	384.92
962.102	418.12
962.395	390.03
962.689	425.78
962.982	379.81
963.276	328.75
963.569	346.62
963.862	377.26
964.156	338.96
964.449	387.48
964.742	474.29
965.035	464.08
965.328	377.26
965.622	413.01
965.915	407.9
966.208	425.78
966.5	420.67
966.793	321.09
967.086	435.99
967.379	423.22
967.672	435.99
967.964	418.12
968.257	364.49
968.55	390.03
968.842	410.46
969.135	497.27
969.427	372.15
969.72	446.2
970.012	428.33
970.304	566.21
970.597	415.56
970.889	425.78
971.181	420.67
971.473	346.62
971.765	405.35
972.057	415.56
972.349	430.88
972.641	418.12
972.933	346.62
973.225	308.32
973.517	374.71
973.809	407.9
974.1	423.22
974.392	387.48
974.684	433.44
974.975	430.88
975.267	351.73
975.558	415.56
975.85	407.9
976.141	430.88
976.432	407.9
976.724	405.35
977.015	456.42
977.306	387.48
977.597	387.48
977.888	407.9
978.179	405.35
978.47	400.24
978.761	464.08
979.052	387.48
979.343	346.62
979.634	415.56
979.925	418.12
980.215	405.35
980.506	428.33
980.797	407.9
981.087	390.03
981.378	377.26
981.668	328.75
981.959	413.01
982.249	382.37
982.54	438.54
982.83	418.12
983.12	418.12
983.41	451.31
983.701	405.35
983.991	387.48
984.281	438.54
984.571	407.9
984.861	402.8
985.151	430.88
985.441	510.04
985.73	413.01
986.02	413.01
986.31	333.85
986.6	397.69
986.889	458.97
987.179	374.71
987.469	400.24
987.758	384.92
988.048	382.37
988.337	397.69
988.626	400.24
988.916	372.15
989.205	359.39
989.494	390.03
989.783	443.65
990.073	336.41
990.362	446.2
990.651	402.8
990.94	428.33
991.229	369.6
991.518	402.8
991.806	364.49
992.095	374.71
992.384	428.33
992.673	407.9
992.961	400.24
993.25	400.24
993.539	425.78
993.827	392.58
994.116	387.48
994.404	382.37
994.692	413.01
994.981	410.46
995.269	384.92
995.557	423.22
995.846	405.35
996.134	425.78
996.422	443.65
996.71	390.03
996.998	405.35
997.286	395.14
997.574	441.1
997.862	405.35
998.15	407.9
998.437	390.03
998.725	379.81
999.013	448.76
999.3	410.46
999.588	402.8
999.876	367.05
1000.163	387.48
1000.45	361.94
1000.738	392.58
1001.025	415.56
1001.313	351.73
1001.6	392.58
1001.887	497.27
1002.174	420.67
1002.461	364.49
1002.748	446.2
1003.036	430.88
1003.322	405.35
1003.609	464.08
1003.896	415.56
1004.183	395.14
1004.47	397.69
1004.757	456.42
1005.043	390.03
1005.33	405.35
1005.617	374.71
1005.903	387.48
1006.19	405.35
1006.476	392.58
1006.763	354.28
1007.049	430.88
1007.335	387.48
1007.622	395.14
1007.908	384.92
1008.194	374.71
1008.48	479.4
1008.766	464.08
1009.053	435.99
1009.339	435.99
1009.625	415.56
1009.91	382.37
1010.196	338.96
1010.482	395.14
1010.768	420.67
1011.054	313.43
1011.339	369.6
1011.625	428.33
1011.911	374.71
1012.196	361.94
1012.482	415.56
1012.767	433.44
1013.052	438.54
1013.338	400.24
1013.623	379.81
1013.908	374.71
1014.194	420.67
1014.479	377.26
1014.764	377.26
1015.049	351.73
1015.334	415.56
1015.619	377.26
1015.904	361.94
1016.189	351.73
1016.474	420.67
1016.758	364.49
1017.043	469.18
1017.328	420.67
1017.613	379.81
1017.897	382.37
1018.182	415.56
1018.466	397.69
1018.751	336.41
1019.035	361.94
1019.32	430.88
1019.604	420.67
1019.888	438.54
1020.172	438.54
1020.457	438.54
