Data from 2025-12-03_xpw_interference_micrometer_634_reference_FLMS141361__74__524.txt Node

Date: Wed Dec 03 15:52:26 MST 2025
User: james
Spectrometer: FLMS14136
Trigger mode: 0
Integration Time (sec): 1.000000E-1
Scans to average: 1
Electric dark correction enabled: true
Nonlinearity correction enabled: false
Boxcar width: 0
XAxis mode: Wavelengths
Number of Pixels in Spectrum: 2048
>>>>>Begin Spectral Data<<<<<
339.315	-37.82
339.697	-37.82
340.079	-37.82
340.461	-188.47
340.843	-129.74
341.225	-78.68
341.607	-111.87
341.989	-55.7
342.371	-65.91
342.752	-68.46
343.134	-7.18
343.516	-48.04
343.897	26.01
344.279	0.48
344.661	-2.07
345.042	3.03
345.423	38.78
345.805	71.97
346.186	74.53
346.567	102.61
346.949	120.49
347.33	153.68
347.711	222.62
348.092	207.3
348.473	222.62
348.854	220.07
349.235	232.84
349.616	281.35
349.997	273.69
350.378	311.99
350.758	383.49
351.139	368.17
351.52	322.2
351.9	444.77
352.281	352.84
352.661	378.38
353.042	365.61
353.422	373.27
353.803	434.55
354.183	424.34
354.563	380.93
354.943	383.49
355.324	424.34
355.704	398.81
356.084	393.7
356.464	365.61
356.844	352.84
357.224	368.17
357.603	375.83
357.983	398.81
358.363	419.23
358.743	368.17
359.122	329.86
359.502	301.78
359.882	329.86
360.261	421.79
360.641	426.89
361.02	355.4
361.399	347.74
361.779	319.65
362.158	375.83
362.537	398.81
362.916	383.49
363.296	299.22
363.675	380.93
364.054	388.59
364.433	350.29
364.812	347.74
365.19	314.54
365.569	283.9
365.948	391.15
366.327	345.18
366.705	268.58
367.084	393.7
367.463	368.17
367.841	324.76
368.22	286.46
368.598	370.72
368.977	347.74
369.355	345.18
369.733	388.59
370.111	365.61
370.49	329.86
370.868	309.44
371.246	281.35
371.624	365.61
372.002	470.3
372.38	386.04
372.758	329.86
373.136	327.31
373.513	342.63
373.891	294.12
374.269	317.1
374.646	309.44
375.024	324.76
375.402	363.06
375.779	352.84
376.157	345.18
376.534	345.18
376.911	388.59
377.289	352.84
377.666	424.34
378.043	357.95
378.42	485.62
378.797	365.61
379.175	347.74
379.552	368.17
379.929	375.83
380.305	317.1
380.682	347.74
381.059	375.83
381.436	380.93
381.813	368.17
382.189	386.04
382.566	350.29
382.943	250.71
383.319	391.15
383.696	375.83
384.072	342.63
384.448	329.86
384.825	429.45
385.201	324.76
385.577	409.02
385.953	368.17
386.329	432
386.706	370.72
387.082	357.95
387.458	309.44
387.834	396.25
388.209	370.72
388.585	391.15
388.961	360.51
389.337	391.15
389.713	347.74
390.088	329.86
390.464	370.72
390.839	391.15
391.215	334.97
391.59	355.4
391.966	365.61
392.341	370.72
392.716	401.36
393.092	332.42
393.467	347.74
393.842	347.74
394.217	319.65
394.592	365.61
394.967	409.02
395.342	370.72
395.717	391.15
396.092	355.4
396.467	429.45
396.841	432
397.216	324.76
397.591	391.15
397.965	368.17
398.34	350.29
398.714	401.36
399.089	378.38
399.463	324.76
399.838	345.18
400.212	375.83
400.586	365.61
400.961	396.25
401.335	347.74
401.709	398.81
402.083	337.52
402.457	414.13
402.831	414.13
403.205	452.43
403.579	370.72
403.953	324.76
404.326	424.34
404.7	419.23
405.074	391.15
405.447	432
405.821	327.31
406.195	398.81
406.568	365.61
406.942	401.36
407.315	370.72
407.688	375.83
408.062	355.4
408.435	352.84
408.808	360.51
409.181	380.93
409.554	434.55
409.927	352.84
410.3	311.99
410.673	498.39
411.046	365.61
411.419	327.31
411.792	342.63
412.165	337.52
412.537	393.7
412.91	368.17
413.283	386.04
413.655	373.27
414.028	319.65
414.4	398.81
414.773	355.4
415.145	419.23
415.517	306.88
415.889	329.86
416.262	375.83
416.634	332.42
417.006	396.25
417.378	396.25
417.75	421.79
418.122	363.06
418.494	352.84
418.866	357.95
419.238	388.59
419.609	355.4
419.981	398.81
420.353	393.7
420.725	457.53
421.096	386.04
421.468	373.27
421.839	391.15
422.211	337.52
422.582	434.55
422.953	368.17
423.325	429.45
423.696	401.36
424.067	386.04
424.438	383.49
424.809	416.68
425.18	426.89
425.551	391.15
425.922	414.13
426.293	398.81
426.664	357.95
427.035	429.45
427.406	416.68
427.776	409.02
428.147	401.36
428.518	386.04
428.888	360.51
429.259	373.27
429.629	350.29
429.999	334.97
430.37	352.84
430.74	391.15
431.11	357.95
431.481	391.15
431.851	403.91
432.221	444.77
432.591	304.33
432.961	324.76
433.331	340.08
433.701	383.49
434.071	388.59
434.441	363.06
434.81	419.23
435.18	437.11
435.55	301.78
435.919	432
436.289	398.81
436.658	360.51
437.028	337.52
437.397	342.63
437.767	375.83
438.136	437.11
438.505	421.79
438.875	380.93
439.244	414.13
439.613	393.7
439.982	363.06
440.351	365.61
440.72	355.4
441.089	378.38
441.458	424.34
441.827	470.3
442.196	393.7
442.564	424.34
442.933	386.04
443.302	393.7
443.67	411.57
444.039	409.02
444.407	403.91
444.776	414.13
445.144	388.59
445.513	375.83
445.881	375.83
446.249	393.7
446.617	403.91
446.986	375.83
447.354	388.59
447.722	363.06
448.09	352.84
448.458	398.81
448.826	398.81
449.194	386.04
449.561	388.59
449.929	383.49
450.297	426.89
450.665	411.57
451.032	424.34
451.4	421.79
451.767	414.13
452.135	434.55
452.502	421.79
452.87	403.91
453.237	411.57
453.604	368.17
453.971	429.45
454.339	355.4
454.706	419.23
455.073	442.21
455.44	406.47
455.807	421.79
456.174	429.45
456.541	401.36
456.908	416.68
457.274	388.59
457.641	421.79
458.008	447.32
458.374	350.29
458.741	398.81
459.108	411.57
459.474	345.18
459.841	281.35
460.207	380.93
460.573	370.72
460.94	411.57
461.306	434.55
461.672	419.23
462.038	375.83
462.404	396.25
462.771	350.29
463.137	460.09
463.503	442.21
463.868	429.45
464.234	409.02
464.6	365.61
464.966	396.25
465.332	452.43
465.697	401.36
466.063	391.15
466.429	337.52
466.794	378.38
467.16	375.83
467.525	416.68
467.89	426.89
468.256	380.93
468.621	386.04
468.986	454.98
469.351	434.55
469.717	429.45
470.082	426.89
470.447	409.02
470.812	409.02
471.177	373.27
471.542	457.53
471.906	409.02
472.271	421.79
472.636	345.18
473.001	332.42
473.365	368.17
473.73	416.68
474.094	406.47
474.459	378.38
474.823	429.45
475.188	457.53
475.552	342.63
475.917	383.49
476.281	426.89
476.645	370.72
477.009	480.51
477.373	363.06
477.737	393.7
478.101	378.38
478.465	375.83
478.829	391.15
479.193	409.02
479.557	363.06
479.921	370.72
480.284	434.55
480.648	411.57
481.012	426.89
481.375	419.23
481.739	442.21
482.102	357.95
482.466	411.57
482.829	454.98
483.193	391.15
483.556	386.04
483.919	396.25
484.282	421.79
484.645	424.34
485.009	457.53
485.372	409.02
485.735	383.49
486.098	391.15
486.46	378.38
486.823	424.34
487.186	432
487.549	378.38
487.912	401.36
488.274	416.68
488.637	393.7
488.999	396.25
489.362	386.04
489.724	462.64
490.087	414.13
490.449	398.81
490.811	434.55
491.174	429.45
491.536	437.11
491.898	409.02
492.26	401.36
492.622	470.3
492.984	462.64
493.346	429.45
493.708	452.43
494.07	426.89
494.432	401.36
494.794	380.93
495.155	472.85
495.517	380.93
495.879	434.55
496.24	396.25
496.602	365.61
496.963	345.18
497.325	380.93
497.686	465.19
498.048	470.3
498.409	424.34
498.77	393.7
499.131	426.89
499.492	363.06
499.854	416.68
500.215	439.66
500.576	444.77
500.937	429.45
501.298	398.81
501.658	409.02
502.019	375.83
502.38	327.31
502.741	370.72
503.101	406.47
503.462	380.93
503.823	403.91
504.183	437.11
504.543	396.25
504.904	357.95
505.264	365.61
505.625	409.02
505.985	434.55
506.345	454.98
506.705	380.93
507.065	403.91
507.426	370.72
507.786	419.23
508.146	383.49
508.505	370.72
508.865	393.7
509.225	432
509.585	426.89
509.945	311.99
510.304	411.57
510.664	439.66
511.024	411.57
511.383	429.45
511.743	393.7
512.102	513.71
512.462	457.53
512.821	447.32
513.18	421.79
513.539	414.13
513.899	345.18
514.258	378.38
514.617	429.45
514.976	462.64
515.335	363.06
515.694	419.23
516.053	401.36
516.412	421.79
516.771	406.47
517.129	393.7
517.488	396.25
517.847	411.57
518.205	401.36
518.564	414.13
518.922	434.55
519.281	470.3
519.639	426.89
519.998	442.21
520.356	363.06
520.714	398.81
521.073	421.79
521.431	419.23
521.789	391.15
522.147	409.02
522.505	447.32
522.863	416.68
523.221	334.97
523.579	442.21
523.937	493.28
524.295	444.77
524.652	363.06
525.01	352.84
525.368	386.04
525.725	416.68
526.083	444.77
526.44	429.45
526.798	393.7
527.155	398.81
527.513	378.38
527.87	383.49
528.227	355.4
528.584	383.49
528.942	360.51
529.299	447.32
529.656	317.1
530.013	368.17
530.37	383.49
530.727	396.25
531.083	424.34
531.44	437.11
531.797	396.25
532.154	470.3
532.511	444.77
532.867	403.91
533.224	368.17
533.58	368.17
533.937	360.51
534.293	322.2
534.65	368.17
535.006	334.97
535.362	391.15
535.718	401.36
536.075	393.7
536.431	457.53
536.787	434.55
537.143	401.36
537.499	386.04
537.855	368.17
538.211	378.38
538.567	342.63
538.923	406.47
539.278	419.23
539.634	350.29
539.99	365.61
540.345	388.59
540.701	398.81
541.056	401.36
541.412	365.61
541.767	373.27
542.123	365.61
542.478	380.93
542.833	416.68
543.188	373.27
543.544	409.02
543.899	419.23
544.254	437.11
544.609	383.49
544.964	373.27
545.319	391.15
545.674	416.68
546.029	357.95
546.383	317.1
546.738	403.91
547.093	319.65
547.447	363.06
547.802	370.72
548.157	340.08
548.511	429.45
548.866	406.47
549.22	434.55
549.574	396.25
549.929	437.11
550.283	447.32
550.637	409.02
550.991	419.23
551.345	409.02
551.699	393.7
552.053	449.87
552.407	457.53
552.761	396.25
553.115	396.25
553.469	378.38
553.823	365.61
554.176	337.52
554.53	388.59
554.884	398.81
555.237	559.67
555.591	454.98
555.944	411.57
556.298	406.47
556.651	488.17
557.005	424.34
557.358	434.55
557.711	370.72
558.064	357.95
558.417	393.7
558.771	536.69
559.124	506.05
559.477	437.11
559.83	391.15
560.182	414.13
560.535	347.74
560.888	403.91
561.241	444.77
561.594	442.21
561.946	424.34
562.299	391.15
562.651	414.13
563.004	414.13
563.356	498.39
563.709	398.81
564.061	421.79
564.413	388.59
564.766	373.27
565.118	439.66
565.47	355.4
565.822	416.68
566.174	421.79
566.526	454.98
566.878	345.18
567.23	388.59
567.582	383.49
567.934	421.79
568.286	414.13
568.638	352.84
568.989	370.72
569.341	388.59
569.693	380.93
570.044	444.77
570.396	373.27
570.747	401.36
571.098	426.89
571.45	406.47
571.801	352.84
572.152	414.13
572.504	416.68
572.855	378.38
573.206	454.98
573.557	398.81
573.908	470.3
574.259	419.23
574.61	411.57
574.961	409.02
575.311	452.43
575.662	447.32
576.013	386.04
576.364	350.29
576.714	380.93
577.065	375.83
577.415	383.49
577.766	434.55
578.116	396.25
578.467	411.57
578.817	388.59
579.167	409.02
579.518	414.13
579.868	378.38
580.218	380.93
580.568	426.89
580.918	391.15
581.268	363.06
581.618	391.15
581.968	365.61
582.318	409.02
582.668	340.08
583.017	388.59
583.367	447.32
583.717	414.13
584.066	391.15
584.416	406.47
584.765	401.36
585.115	383.49
585.464	424.34
585.814	370.72
586.163	383.49
586.512	457.53
586.862	403.91
587.211	393.7
587.56	401.36
587.909	409.02
588.258	449.87
588.607	419.23
588.956	465.19
589.305	447.32
589.654	416.68
590.002	386.04
590.351	452.43
590.7	434.55
591.048	393.7
591.397	352.84
591.746	409.02
592.094	401.36
592.443	383.49
592.791	424.34
593.139	439.66
593.488	350.29
593.836	421.79
594.184	388.59
594.532	403.91
594.88	432
595.228	457.53
595.576	396.25
595.924	365.61
596.272	429.45
596.62	406.47
596.968	332.42
597.316	393.7
597.664	439.66
598.011	345.18
598.359	470.3
598.706	470.3
599.054	465.19
599.402	426.89
599.749	393.7
600.096	401.36
600.444	426.89
600.791	470.3
601.138	393.7
601.485	383.49
601.833	401.36
602.18	454.98
602.527	391.15
602.874	373.27
603.221	429.45
603.568	447.32
603.914	424.34
604.261	421.79
604.608	368.17
604.955	396.25
605.301	434.55
605.648	419.23
605.995	365.61
606.341	350.29
606.688	398.81
607.034	424.34
607.38	406.47
607.727	342.63
608.073	401.36
608.419	375.83
608.765	444.77
609.112	398.81
609.458	347.74
609.804	411.57
610.15	454.98
610.496	434.55
610.842	406.47
611.187	426.89
611.533	391.15
611.879	337.52
612.225	444.77
612.57	378.38
612.916	434.55
613.261	401.36
613.607	401.36
613.952	403.91
614.298	411.57
614.643	347.74
614.989	345.18
615.334	416.68
615.679	444.77
616.024	391.15
616.369	401.36
616.714	368.17
617.059	291.56
617.404	393.7
617.749	345.18
618.094	314.54
618.439	396.25
618.784	460.09
619.129	403.91
619.473	414.13
619.818	368.17
620.163	470.3
620.507	386.04
620.852	434.55
621.196	347.74
621.54	319.65
621.885	401.36
622.229	429.45
622.573	419.23
622.918	355.4
623.262	406.47
623.606	467.75
623.95	396.25
624.294	386.04
624.638	311.99
624.982	363.06
625.326	434.55
625.67	490.73
626.013	439.66
626.357	434.55
626.701	429.45
627.044	357.95
627.388	340.08
627.731	314.54
628.075	368.17
628.418	355.4
628.762	370.72
629.105	386.04
629.448	414.13
629.792	452.43
630.135	429.45
630.478	416.68
630.821	444.77
631.164	352.84
631.507	442.21
631.85	391.15
632.193	337.52
632.536	347.74
632.879	398.81
633.221	365.61
633.564	437.11
633.907	421.79
634.249	432
634.592	360.51
634.935	373.27
635.277	393.7
635.619	401.36
635.962	426.89
636.304	426.89
636.646	393.7
636.989	357.95
637.331	370.72
637.673	383.49
638.015	398.81
638.357	393.7
638.699	406.47
639.041	416.68
639.383	383.49
639.725	314.54
640.067	357.95
640.408	347.74
640.75	373.27
641.092	444.77
641.433	429.45
641.775	416.68
642.116	426.89
642.458	465.19
642.799	465.19
643.141	442.21
643.482	449.87
643.823	419.23
644.164	383.49
644.506	414.13
644.847	375.83
645.188	472.85
645.529	350.29
645.87	403.91
646.211	398.81
646.552	352.84
646.893	370.72
647.233	472.85
647.574	424.34
647.915	416.68
648.255	388.59
648.596	396.25
648.937	391.15
649.277	398.81
649.618	388.59
649.958	426.89
650.298	398.81
650.639	426.89
650.979	406.47
651.319	396.25
651.659	403.91
651.999	396.25
652.339	414.13
652.679	414.13
653.019	383.49
653.359	398.81
653.699	429.45
654.039	424.34
654.379	393.7
654.719	357.95
655.058	442.21
655.398	345.18
655.737	439.66
656.077	419.23
656.416	447.32
656.756	370.72
657.095	383.49
657.435	426.89
657.774	432
658.113	393.7
658.452	421.79
658.792	322.2
659.131	429.45
659.47	360.51
659.809	429.45
660.148	462.64
660.487	460.09
660.826	365.61
661.164	416.68
661.503	391.15
661.842	375.83
662.181	411.57
662.519	414.13
662.858	368.17
663.196	340.08
663.535	409.02
663.873	329.86
664.212	368.17
664.55	314.54
664.888	350.29
665.226	401.36
665.565	401.36
665.903	610.74
666.241	434.55
666.579	416.68
666.917	350.29
667.255	406.47
667.593	429.45
667.931	429.45
668.268	383.49
668.606	406.47
668.944	378.38
669.282	411.57
669.619	365.61
669.957	403.91
670.294	414.13
670.632	391.15
670.969	386.04
671.307	398.81
671.644	368.17
671.981	424.34
672.318	432
672.656	378.38
672.993	375.83
673.33	406.47
673.667	352.84
674.004	334.97
674.341	375.83
674.678	357.95
675.015	403.91
675.351	460.09
675.688	470.3
676.025	414.13
676.362	370.72
676.698	291.56
677.035	380.93
677.371	406.47
677.708	342.63
678.044	437.11
678.38	419.23
678.717	386.04
679.053	388.59
679.389	378.38
679.725	388.59
680.062	421.79
680.398	429.45
680.734	334.97
681.07	345.18
681.406	380.93
681.742	350.29
682.077	406.47
682.413	398.81
682.749	403.91
683.085	391.15
683.42	309.44
683.756	368.17
684.091	365.61
684.427	352.84
684.762	345.18
685.098	309.44
685.433	345.18
685.768	414.13
686.104	357.95
686.439	373.27
686.774	391.15
687.109	363.06
687.444	357.95
687.779	411.57
688.114	444.77
688.449	386.04
688.784	398.81
689.119	355.4
689.454	380.93
689.789	357.95
690.123	373.27
690.458	426.89
690.792	419.23
691.127	426.89
691.461	375.83
691.796	403.91
692.13	373.27
692.465	334.97
692.799	347.74
693.133	388.59
693.467	388.59
693.802	409.02
694.136	424.34
694.47	406.47
694.804	375.83
695.138	380.93
695.472	401.36
695.806	363.06
696.139	337.52
696.473	368.17
696.807	386.04
697.141	391.15
697.474	470.3
697.808	437.11
698.141	360.51
698.475	378.38
698.808	380.93
699.142	406.47
699.475	480.51
699.808	391.15
700.142	406.47
700.475	396.25
700.808	373.27
701.141	319.65
701.474	314.54
701.807	414.13
702.14	383.49
702.473	332.42
702.806	386.04
703.139	419.23
703.472	429.45
703.804	368.17
704.137	409.02
704.47	368.17
704.802	401.36
705.135	442.21
705.467	360.51
705.8	370.72
706.132	304.33
706.464	396.25
706.797	350.29
707.129	401.36
707.461	401.36
707.793	424.34
708.125	383.49
708.457	406.47
708.789	452.43
709.121	401.36
709.453	363.06
709.785	398.81
710.117	368.17
710.449	406.47
710.781	416.68
711.112	383.49
711.444	391.15
711.775	411.57
712.107	317.1
712.438	388.59
712.77	347.74
713.101	329.86
713.433	386.04
713.764	437.11
714.095	432
714.426	375.83
714.757	457.53
715.089	403.91
715.42	424.34
715.751	426.89
716.082	301.78
716.412	393.7
716.743	388.59
717.074	419.23
717.405	357.95
717.736	398.81
718.066	373.27
718.397	416.68
718.727	437.11
719.058	386.04
719.388	334.97
719.719	347.74
720.049	439.66
720.38	357.95
720.71	414.13
721.04	393.7
721.37	442.21
721.7	452.43
722.031	319.65
722.361	373.27
722.691	409.02
723.021	421.79
723.35	411.57
723.68	360.51
724.01	414.13
724.34	386.04
724.67	416.68
724.999	350.29
725.329	375.83
725.658	373.27
725.988	383.49
726.317	449.87
726.647	462.64
726.976	414.13
727.306	393.7
727.635	383.49
727.964	345.18
728.293	416.68
728.622	398.81
728.952	424.34
729.281	414.13
729.61	403.91
729.939	357.95
730.267	411.57
730.596	434.55
730.925	378.38
731.254	373.27
731.583	437.11
731.911	386.04
732.24	352.84
732.568	432
732.897	419.23
733.225	373.27
733.554	393.7
733.882	383.49
734.21	350.29
734.539	375.83
734.867	393.7
735.195	409.02
735.523	409.02
735.851	406.47
736.179	327.31
736.507	388.59
736.835	396.25
737.163	365.61
737.491	352.84
737.819	350.29
738.147	432
738.474	444.77
738.802	409.02
739.13	363.06
739.457	462.64
739.785	345.18
740.112	414.13
740.44	370.72
740.767	434.55
741.094	447.32
741.422	363.06
741.749	378.38
742.076	360.51
742.403	357.95
742.73	363.06
743.057	368.17
743.384	421.79
743.711	380.93
744.038	380.93
744.365	434.55
744.692	375.83
745.018	416.68
745.345	386.04
745.672	299.22
745.998	409.02
746.325	434.55
746.651	414.13
746.978	444.77
747.304	360.51
747.631	391.15
747.957	378.38
748.283	388.59
748.61	393.7
748.936	345.18
749.262	375.83
749.588	437.11
749.914	426.89
750.24	429.45
750.566	327.31
750.892	444.77
751.218	439.66
751.543	332.42
751.869	426.89
752.195	375.83
752.521	419.23
752.846	386.04
753.172	414.13
753.497	419.23
753.823	393.7
754.148	345.18
754.473	393.7
754.799	352.84
755.124	365.61
755.449	439.66
755.774	322.2
756.1	414.13
756.425	414.13
756.75	388.59
757.075	401.36
757.4	557.12
757.724	373.27
758.049	409.02
758.374	411.57
758.699	426.89
759.024	337.52
759.348	373.27
759.673	386.04
759.997	421.79
760.322	429.45
760.646	380.93
760.971	449.87
761.295	388.59
761.619	416.68
761.944	411.57
762.268	442.21
762.592	426.89
762.916	401.36
763.24	460.09
763.564	457.53
763.888	416.68
764.212	444.77
764.536	442.21
764.86	498.39
765.184	449.87
765.508	495.83
765.831	449.87
766.155	656.7
766.478	444.77
766.802	483.07
767.126	500.94
767.449	477.96
767.772	549.46
768.096	552.01
768.419	605.63
768.742	600.52
769.066	664.36
769.389	633.72
769.712	677.12
770.035	656.7
770.358	705.21
770.681	758.83
771.004	774.15
771.327	743.51
771.65	702.66
771.972	707.76
772.295	763.94
772.618	771.6
772.941	812.45
773.263	878.84
773.586	871.18
773.908	940.12
774.231	1021.83
774.553	991.19
774.875	998.85
775.198	1065.24
775.52	1039.7
775.842	1024.38
776.164	1085.66
776.487	1052.47
776.809	1009.06
777.131	1083.11
777.453	1044.81
777.775	1136.73
778.096	1162.27
778.418	1108.64
778.74	1141.84
779.062	1090.77
779.384	1187.8
779.705	1348.66
780.027	1374.2
780.348	1384.41
780.67	1466.12
780.991	1386.96
781.313	1565.7
781.634	1624.43
781.955	1639.75
782.277	1583.57
782.598	1588.68
782.919	1550.38
783.24	1565.7
783.561	1721.46
783.882	1693.37
784.203	1695.92
784.524	1736.78
784.845	1581.02
785.166	1568.25
785.487	1547.83
785.807	1703.58
786.128	1657.62
786.449	1609.11
786.769	1752.1
787.09	1930.83
787.41	2007.43
787.731	2152.98
788.051	2267.88
788.372	2354.69
788.692	2326.61
789.012	2257.66
789.332	2288.31
789.653	2398.1
789.973	2533.43
790.293	2533.43
790.613	2331.71
790.933	2301.07
791.253	2278.09
791.573	2234.68
791.893	2280.65
792.212	2234.68
792.532	2214.26
792.852	2107.02
793.171	2048.29
793.491	1984.45
793.811	1992.11
794.13	1951.26
794.45	1872.1
794.769	1798.06
795.088	1810.82
795.408	1759.76
795.727	1994.67
796.046	1902.75
796.365	1907.85
796.684	1841.46
797.004	1831.25
797.323	1974.24
797.642	2449.17
797.96	2431.29
798.279	2464.49
798.598	2408.31
798.917	2311.29
799.236	2078.93
799.554	2086.59
799.873	2076.38
800.192	2012.54
800.51	2173.4
800.829	2114.68
801.147	2061.05
801.466	1902.75
801.784	1984.45
802.102	1971.69
802.421	2107.02
802.739	2298.52
803.057	2321.5
803.375	2183.62
803.693	2147.87
804.011	2444.06
804.329	2418.53
804.647	2377.67
804.965	2257.66
805.283	2239.79
805.601	2127.44
805.918	1859.34
806.236	1864.44
806.554	1754.65
806.871	1810.82
807.189	1969.13
807.507	2122.34
807.824	2084.04
808.141	1895.09
808.459	1683.15
808.776	1593.79
809.093	1374.2
809.411	1330.79
809.728	1318.02
810.045	1348.66
810.362	1376.75
810.679	1297.59
810.996	1361.43
811.313	1473.78
811.63	1438.03
811.947	1379.3
812.264	1386.96
812.58	1295.04
812.897	1279.72
813.214	1292.49
813.53	1243.97
813.847	1307.81
814.163	1358.88
814.48	1320.58
814.796	1307.81
815.113	1277.17
815.429	1249.08
815.745	1106.09
816.061	1157.16
816.378	1121.41
816.694	1055.02
817.01	1090.77
817.326	1152.05
817.642	1157.16
817.958	1083.11
818.274	968.21
818.59	1016.72
818.905	919.69
819.221	1039.7
819.537	973.32
819.852	991.19
820.168	950.34
820.484	1055.02
820.799	889.05
821.115	1039.7
821.43	947.78
821.745	891.61
822.061	891.61
822.376	922.25
822.691	837.99
823.006	868.63
823.322	855.86
823.637	738.41
823.952	743.51
824.267	728.19
824.582	860.97
824.897	792.03
825.211	820.11
825.526	812.45
825.841	799.69
826.156	769.05
826.47	761.39
826.785	748.62
827.1	679.68
827.414	646.48
827.729	697.55
828.043	720.53
828.357	702.66
828.672	725.64
828.986	631.16
829.3	672.02
829.614	664.36
829.929	664.36
830.243	508.6
830.557	552.01
830.871	557.12
831.185	631.16
831.499	544.35
831.812	541.79
832.126	523.92
832.44	536.69
832.754	526.47
833.067	595.42
833.381	656.7
833.695	554.56
834.008	700.1
834.322	587.76
834.635	605.63
834.948	585.2
835.262	600.52
835.575	541.79
835.888	541.79
836.201	513.71
836.515	585.2
836.828	506.05
837.141	503.49
837.454	513.71
837.767	549.46
838.08	432
838.392	500.94
838.705	488.17
839.018	488.17
839.331	475.41
839.643	508.6
839.956	432
840.269	475.41
840.581	424.34
840.894	403.91
841.206	475.41
841.519	574.99
841.831	495.83
842.143	449.87
842.455	521.37
842.768	429.45
843.08	396.25
843.392	378.38
843.704	406.47
844.016	432
844.328	401.36
844.64	409.02
844.952	391.15
845.263	388.59
845.575	472.85
845.887	477.96
846.199	416.68
846.51	380.93
846.822	406.47
847.133	391.15
847.445	419.23
847.756	465.19
848.068	411.57
848.379	414.13
848.69	493.28
849.002	406.47
849.313	429.45
849.624	426.89
849.935	414.13
850.246	432
850.557	383.49
850.868	365.61
851.179	429.45
851.49	424.34
851.801	360.51
852.112	409.02
852.422	378.38
852.733	365.61
853.044	373.27
853.354	442.21
853.665	391.15
853.975	365.61
854.286	347.74
854.596	409.02
854.906	380.93
855.217	386.04
855.527	454.98
855.837	406.47
856.147	375.83
856.458	426.89
856.768	398.81
857.078	388.59
857.388	429.45
857.698	419.23
858.007	388.59
858.317	380.93
858.627	396.25
858.937	360.51
859.246	416.68
859.556	447.32
859.866	396.25
860.175	357.95
860.485	426.89
860.794	398.81
861.104	388.59
861.413	398.81
861.722	437.11
862.032	465.19
862.341	355.4
862.65	416.68
862.959	391.15
863.268	439.66
863.577	332.42
863.886	393.7
864.195	393.7
864.504	401.36
864.813	391.15
865.122	388.59
865.43	332.42
865.739	409.02
866.048	457.53
866.356	421.79
866.665	345.18
866.973	352.84
867.282	391.15
867.59	403.91
867.899	360.51
868.207	301.78
868.515	393.7
868.823	426.89
869.132	393.7
869.44	391.15
869.748	444.77
870.056	373.27
870.364	357.95
870.672	444.77
870.98	334.97
871.288	393.7
871.595	352.84
871.903	386.04
872.211	342.63
872.518	398.81
872.826	465.19
873.134	393.7
873.441	434.55
873.749	419.23
874.056	421.79
874.363	398.81
874.671	393.7
874.978	352.84
875.285	309.44
875.592	396.25
875.9	350.29
876.207	393.7
876.514	388.59
876.821	360.51
877.128	419.23
877.435	421.79
877.741	419.23
878.048	396.25
878.355	391.15
878.662	380.93
878.968	421.79
879.275	437.11
879.582	449.87
879.888	350.29
880.195	467.75
880.501	406.47
880.807	291.56
881.114	416.68
881.42	386.04
881.726	403.91
882.032	306.88
882.339	439.66
882.645	393.7
882.951	383.49
883.257	414.13
883.563	360.51
883.869	355.4
884.174	337.52
884.48	398.81
884.786	373.27
885.092	401.36
885.397	378.38
885.703	324.76
886.009	386.04
886.314	347.74
886.62	421.79
886.925	380.93
887.231	311.99
887.536	444.77
887.841	493.28
888.146	391.15
888.452	411.57
888.757	363.06
889.062	403.91
889.367	329.86
889.672	386.04
889.977	386.04
890.282	352.84
890.587	276.24
890.892	355.4
891.196	439.66
891.501	378.38
891.806	388.59
892.11	360.51
892.415	347.74
892.72	406.47
893.024	401.36
893.328	498.39
893.633	365.61
893.937	416.68
894.242	383.49
894.546	370.72
894.85	373.27
895.154	424.34
895.458	352.84
895.762	403.91
896.066	329.86
896.37	368.17
896.674	357.95
896.978	414.13
897.282	383.49
897.586	401.36
897.89	365.61
898.193	391.15
898.497	373.27
898.801	368.17
899.104	350.29
899.408	363.06
899.711	340.08
900.014	414.13
900.318	421.79
900.621	386.04
900.924	347.74
901.228	437.11
901.531	347.74
901.834	391.15
902.137	373.27
902.44	391.15
902.743	414.13
903.046	406.47
903.349	355.4
903.652	424.34
903.955	345.18
904.257	388.59
904.56	337.52
904.863	403.91
905.165	383.49
905.468	383.49
905.77	442.21
906.073	340.08
906.375	378.38
906.678	342.63
906.98	414.13
907.282	355.4
907.584	406.47
907.887	386.04
908.189	322.2
908.491	419.23
908.793	347.74
909.095	378.38
909.397	414.13
909.699	337.52
910.001	355.4
910.302	380.93
910.604	442.21
910.906	403.91
911.208	386.04
911.509	429.45
911.811	365.61
912.112	406.47
912.414	393.7
912.715	352.84
913.017	365.61
913.318	424.34
913.619	383.49
913.92	373.27
914.222	409.02
914.523	378.38
914.824	306.88
915.125	373.27
915.426	454.98
915.727	375.83
916.028	426.89
916.329	329.86
916.63	332.42
916.93	363.06
917.231	378.38
917.532	327.31
917.832	345.18
918.133	398.81
918.434	388.59
918.734	411.57
919.034	426.89
919.335	388.59
919.635	432
919.935	380.93
920.236	411.57
920.536	388.59
920.836	406.47
921.136	416.68
921.436	508.6
921.736	437.11
922.036	396.25
922.336	363.06
922.636	368.17
922.936	311.99
923.236	327.31
923.535	368.17
923.835	337.52
924.135	345.18
924.434	449.87
924.734	411.57
925.033	360.51
925.333	365.61
925.632	434.55
925.932	380.93
926.231	411.57
926.53	386.04
926.83	409.02
927.129	388.59
927.428	396.25
927.727	447.32
928.026	393.7
928.325	421.79
928.624	452.43
928.923	429.45
929.222	393.7
929.52	378.38
929.819	334.97
930.118	340.08
930.417	406.47
930.715	403.91
931.014	319.65
931.312	470.3
931.611	386.04
931.909	383.49
932.207	332.42
932.506	421.79
932.804	375.83
933.102	368.17
933.401	347.74
933.699	429.45
933.997	411.57
934.295	475.41
934.593	426.89
934.891	416.68
935.189	416.68
935.487	416.68
935.784	373.27
936.082	378.38
936.38	393.7
936.677	352.84
936.975	414.13
937.273	378.38
937.57	401.36
937.868	403.91
938.165	470.3
938.463	434.55
938.76	447.32
939.057	426.89
939.354	357.95
939.652	334.97
939.949	347.74
940.246	311.99
940.543	368.17
940.84	345.18
941.137	352.84
941.434	345.18
941.731	378.38
942.028	370.72
942.324	317.1
942.621	403.91
942.918	388.59
943.214	411.57
943.511	355.4
943.807	437.11
944.104	434.55
944.4	370.72
944.697	350.29
944.993	332.42
945.29	368.17
945.586	454.98
945.882	334.97
946.178	329.86
946.474	291.56
946.77	406.47
947.066	373.27
947.362	373.27
947.658	401.36
947.954	352.84
948.25	383.49
948.546	352.84
948.842	383.49
949.137	386.04
949.433	378.38
949.729	368.17
950.024	327.31
950.32	342.63
950.615	383.49
950.91	355.4
951.206	365.61
951.501	370.72
951.796	327.31
952.092	383.49
952.387	337.52
952.682	368.17
952.977	360.51
953.272	370.72
953.567	373.27
953.862	380.93
954.157	396.25
954.452	370.72
954.747	350.29
955.041	352.84
955.336	350.29
955.631	368.17
955.925	416.68
956.22	426.89
956.514	352.84
956.809	396.25
957.103	355.4
957.398	424.34
957.692	460.09
957.986	383.49
958.281	444.77
958.575	398.81
958.869	388.59
959.163	360.51
959.457	352.84
959.751	378.38
960.045	375.83
960.339	411.57
960.633	416.68
960.927	424.34
961.221	380.93
961.514	378.38
961.808	340.08
962.102	337.52
962.395	357.95
962.689	345.18
962.982	416.68
963.276	380.93
963.569	452.43
963.862	401.36
964.156	403.91
964.449	357.95
964.742	391.15
965.035	370.72
965.328	283.9
965.622	342.63
965.915	334.97
966.208	380.93
966.5	334.97
966.793	352.84
967.086	403.91
967.379	357.95
967.672	360.51
967.964	414.13
968.257	393.7
968.55	368.17
968.842	370.72
969.135	386.04
969.427	383.49
969.72	398.81
970.012	426.89
970.304	406.47
970.597	424.34
970.889	398.81
971.181	360.51
971.473	383.49
971.765	383.49
972.057	424.34
972.349	396.25
972.641	365.61
972.933	368.17
973.225	368.17
973.517	373.27
973.809	373.27
974.1	363.06
974.392	370.72
974.684	334.97
974.975	388.59
975.267	424.34
975.558	388.59
975.85	365.61
976.141	317.1
976.432	401.36
976.724	419.23
977.015	365.61
977.306	414.13
977.597	406.47
977.888	370.72
978.179	447.32
978.47	373.27
978.761	388.59
979.052	296.67
979.343	334.97
979.634	311.99
979.925	357.95
980.215	396.25
980.506	437.11
980.797	342.63
981.087	470.3
981.378	406.47
981.668	403.91
981.959	342.63
982.249	322.2
982.54	334.97
982.83	398.81
983.12	485.62
983.41	414.13
983.701	465.19
983.991	444.77
984.281	396.25
984.571	347.74
984.861	398.81
985.151	378.38
985.441	373.27
985.73	347.74
986.02	324.76
986.31	401.36
986.6	350.29
986.889	347.74
987.179	447.32
987.469	393.7
987.758	370.72
988.048	340.08
988.337	396.25
988.626	398.81
988.916	378.38
989.205	365.61
989.494	380.93
989.783	419.23
990.073	375.83
990.362	350.29
990.651	429.45
990.94	365.61
991.229	386.04
991.518	363.06
991.806	406.47
992.095	401.36
992.384	383.49
992.673	393.7
992.961	398.81
993.25	393.7
993.539	375.83
993.827	393.7
994.116	378.38
994.404	426.89
994.692	419.23
994.981	388.59
995.269	398.81
995.557	350.29
995.846	378.38
996.134	370.72
996.422	350.29
996.71	391.15
996.998	309.44
997.286	329.86
997.574	314.54
997.862	365.61
998.15	340.08
998.437	447.32
998.725	391.15
999.013	296.67
999.3	388.59
999.588	380.93
999.876	378.38
1000.163	365.61
1000.45	426.89
1000.738	350.29
1001.025	406.47
1001.313	391.15
1001.6	383.49
1001.887	306.88
1002.174	370.72
1002.461	357.95
1002.748	391.15
1003.036	388.59
1003.322	380.93
1003.609	380.93
1003.896	375.83
1004.183	345.18
1004.47	319.65
1004.757	432
1005.043	447.32
1005.33	378.38
1005.617	383.49
1005.903	380.93
1006.19	380.93
1006.476	393.7
1006.763	375.83
1007.049	378.38
1007.335	411.57
1007.622	386.04
1007.908	424.34
1008.194	373.27
1008.48	370.72
1008.766	324.76
1009.053	347.74
1009.339	347.74
1009.625	368.17
1009.91	452.43
1010.196	403.91
1010.482	396.25
1010.768	340.08
1011.054	345.18
1011.339	401.36
1011.625	317.1
1011.911	373.27
1012.196	386.04
1012.482	388.59
1012.767	391.15
1013.052	396.25
1013.338	357.95
1013.623	352.84
1013.908	299.22
1014.194	334.97
1014.479	363.06
1014.764	365.61
1015.049	357.95
1015.334	345.18
1015.619	368.17
1015.904	383.49
1016.189	419.23
1016.474	406.47
1016.758	403.91
1017.043	432
1017.328	429.45
1017.613	365.61
1017.897	296.67
1018.182	327.31
1018.466	355.4
1018.751	421.79
1019.035	393.7
1019.32	380.93
1019.604	370.72
1019.888	342.63
1020.172	342.63
1020.457	342.63
