Data from 2025-12-03_xpw_interference_micrometer_634_reference_FLMS141361__37__487.txt Node

Date: Wed Dec 03 15:52:22 MST 2025
User: james
Spectrometer: FLMS14136
Trigger mode: 0
Integration Time (sec): 1.000000E-1
Scans to average: 1
Electric dark correction enabled: true
Nonlinearity correction enabled: false
Boxcar width: 0
XAxis mode: Wavelengths
Number of Pixels in Spectrum: 2048
>>>>>Begin Spectral Data<<<<<
339.315	-36.07
339.697	-36.07
340.079	-36.07
340.461	-148.42
340.843	-102.45
341.225	-66.71
341.607	-41.17
341.989	-117.77
342.371	-56.49
342.752	-33.51
343.134	-51.39
343.516	-79.47
343.897	-41.17
344.279	-30.96
344.661	20.11
345.042	22.66
345.423	63.52
345.805	68.62
346.186	99.26
346.567	109.48
346.949	135.01
347.33	58.41
347.711	122.24
348.092	183.52
348.473	193.74
348.854	247.36
349.235	209.06
349.616	257.57
349.997	262.68
350.378	272.89
350.758	298.43
351.139	300.98
351.52	323.96
351.9	372.47
352.281	352.05
352.661	380.13
353.042	306.09
353.422	387.79
353.803	367.37
354.183	280.55
354.563	334.17
354.943	354.6
355.324	395.45
355.704	349.49
356.084	403.11
356.464	336.73
356.844	392.9
357.224	357.15
357.603	334.17
357.983	326.51
358.363	436.31
358.743	428.65
359.122	359.71
359.502	357.15
359.882	329.07
360.261	341.83
360.641	349.49
361.02	334.17
361.399	395.45
361.779	323.96
362.158	346.94
362.537	375.03
362.916	372.47
363.296	403.11
363.675	285.66
364.054	334.17
364.433	316.3
364.812	341.83
365.19	321.41
365.569	344.39
365.948	290.77
366.327	303.53
366.705	300.98
367.084	341.83
367.463	346.94
367.841	372.47
368.22	367.37
368.598	372.47
368.977	285.66
369.355	344.39
369.733	336.73
370.111	293.32
370.49	311.19
370.868	359.71
371.246	346.94
371.624	354.6
372.002	321.41
372.38	346.94
372.758	262.68
373.136	323.96
373.513	295.87
373.891	413.33
374.269	339.28
374.646	357.15
375.024	316.3
375.402	308.64
375.779	321.41
376.157	329.07
376.534	334.17
376.911	283.11
377.289	364.81
377.666	331.62
378.043	334.17
378.42	454.18
378.797	377.58
379.175	285.66
379.552	372.47
379.929	336.73
380.305	382.69
380.682	308.64
381.059	369.92
381.436	377.58
381.813	390.35
382.189	306.09
382.566	354.6
382.943	329.07
383.319	395.45
383.696	359.71
384.072	375.03
384.448	367.37
384.825	375.03
385.201	387.79
385.577	375.03
385.953	346.94
386.329	308.64
386.706	387.79
387.082	354.6
387.458	341.83
387.834	380.13
388.209	369.92
388.585	334.17
388.961	321.41
389.337	408.22
389.713	385.24
390.088	380.13
390.464	367.37
390.839	321.41
391.215	359.71
391.59	352.05
391.966	354.6
392.341	375.03
392.716	372.47
393.092	323.96
393.467	341.83
393.842	331.62
394.217	300.98
394.592	387.79
394.967	362.26
395.342	260.13
395.717	392.9
396.092	357.15
396.467	354.6
396.841	367.37
397.216	362.26
397.591	326.51
397.965	390.35
398.34	362.26
398.714	400.56
399.089	346.94
399.463	431.2
399.838	354.6
400.212	428.65
400.586	323.96
400.961	339.28
401.335	318.85
401.709	346.94
402.083	339.28
402.457	438.86
402.831	375.03
403.205	359.71
403.579	349.49
403.953	375.03
404.326	334.17
404.7	357.15
405.074	354.6
405.447	344.39
405.821	321.41
406.195	346.94
406.568	380.13
406.942	438.86
407.315	275.45
407.688	362.26
408.062	364.81
408.435	359.71
408.808	405.67
409.181	395.45
409.554	459.29
409.927	474.61
410.3	359.71
410.673	346.94
411.046	331.62
411.419	380.13
411.792	367.37
412.165	359.71
412.537	293.32
412.91	377.58
413.283	390.35
413.655	369.92
414.028	313.75
414.4	311.19
414.773	375.03
415.145	293.32
415.517	359.71
415.889	362.26
416.262	321.41
416.634	346.94
417.006	398.01
417.378	410.77
417.75	367.37
418.122	377.58
418.494	405.67
418.866	359.71
419.238	298.43
419.609	441.42
419.981	369.92
420.353	352.05
420.725	405.67
421.096	380.13
421.468	420.99
421.839	364.81
422.211	311.19
422.582	413.33
422.953	364.81
423.325	278
423.696	331.62
424.067	408.22
424.438	346.94
424.809	357.15
425.18	303.53
425.551	331.62
425.922	339.28
426.293	390.35
426.664	375.03
427.035	459.29
427.406	377.58
427.776	375.03
428.147	431.2
428.518	433.76
428.888	405.67
429.259	349.49
429.629	392.9
429.999	369.92
430.37	392.9
430.74	362.26
431.11	369.92
431.481	362.26
431.851	420.99
432.221	392.9
432.591	428.65
432.961	334.17
433.331	362.26
433.701	375.03
434.071	316.3
434.441	364.81
434.81	367.37
435.18	377.58
435.55	428.65
435.919	390.35
436.289	377.58
436.658	354.6
437.028	420.99
437.397	420.99
437.767	390.35
438.136	313.75
438.505	423.54
438.875	410.77
439.244	390.35
439.613	410.77
439.982	372.47
440.351	413.33
440.72	395.45
441.089	405.67
441.458	390.35
441.827	433.76
442.196	382.69
442.564	428.65
442.933	413.33
443.302	349.49
443.67	362.26
444.039	367.37
444.407	431.2
444.776	413.33
445.144	349.49
445.513	398.01
445.881	385.24
446.249	405.67
446.617	311.19
446.986	380.13
447.354	385.24
447.722	352.05
448.09	372.47
448.458	423.54
448.826	405.67
449.194	336.73
449.561	352.05
449.929	398.01
450.297	316.3
450.665	357.15
451.032	390.35
451.4	403.11
451.767	364.81
452.135	385.24
452.502	400.56
452.87	390.35
453.237	357.15
453.604	357.15
453.971	449.08
454.339	385.24
454.706	395.45
455.073	375.03
455.44	410.77
455.807	400.56
456.174	321.41
456.541	367.37
456.908	285.66
457.274	364.81
457.641	339.28
458.008	382.69
458.374	369.92
458.741	405.67
459.108	418.43
459.474	385.24
459.841	382.69
460.207	395.45
460.573	372.47
460.94	344.39
461.306	382.69
461.672	336.73
462.038	398.01
462.404	372.47
462.771	321.41
463.137	382.69
463.503	344.39
463.868	405.67
464.234	367.37
464.6	377.58
464.966	387.79
465.332	265.23
465.697	357.15
466.063	426.09
466.429	375.03
466.794	405.67
467.16	375.03
467.525	415.88
467.89	377.58
468.256	362.26
468.621	377.58
468.986	346.94
469.351	438.86
469.717	415.88
470.082	372.47
470.447	359.71
470.812	262.68
471.177	395.45
471.542	408.22
471.906	408.22
472.271	415.88
472.636	331.62
473.001	474.61
473.365	400.56
473.73	390.35
474.094	362.26
474.459	372.47
474.823	372.47
475.188	410.77
475.552	400.56
475.917	362.26
476.281	398.01
476.645	362.26
477.009	390.35
477.373	415.88
477.737	403.11
478.101	395.45
478.465	377.58
478.829	318.85
479.193	377.58
479.557	377.58
479.921	433.76
480.284	400.56
480.648	415.88
481.012	375.03
481.375	354.6
481.739	352.05
482.102	400.56
482.466	352.05
482.829	413.33
483.193	331.62
483.556	372.47
483.919	420.99
484.282	346.94
484.645	352.05
485.009	352.05
485.372	352.05
485.735	359.71
486.098	344.39
486.46	392.9
486.823	382.69
487.186	382.69
487.549	420.99
487.912	372.47
488.274	387.79
488.637	403.11
488.999	418.43
489.362	395.45
489.724	357.15
490.087	375.03
490.449	408.22
490.811	472.06
491.174	423.54
491.536	431.2
491.898	352.05
492.26	375.03
492.622	339.28
492.984	341.83
493.346	405.67
493.708	362.26
494.07	346.94
494.432	380.13
494.794	321.41
495.155	408.22
495.517	443.97
495.879	369.92
496.24	456.74
496.602	403.11
496.963	364.81
497.325	403.11
497.686	385.24
498.048	382.69
498.409	423.54
498.77	428.65
499.131	408.22
499.492	377.58
499.854	372.47
500.215	377.58
500.576	380.13
500.937	400.56
501.298	441.42
501.658	352.05
502.019	334.17
502.38	303.53
502.741	400.56
503.101	390.35
503.462	362.26
503.823	331.62
504.183	433.76
504.543	390.35
504.904	405.67
505.264	377.58
505.625	346.94
505.985	500.14
506.345	420.99
506.705	433.76
507.065	405.67
507.426	426.09
507.786	354.6
508.146	329.07
508.505	377.58
508.865	403.11
509.225	367.37
509.585	484.82
509.945	395.45
510.304	395.45
510.664	433.76
511.024	375.03
511.383	367.37
511.743	423.54
512.102	341.83
512.462	362.26
512.821	418.43
513.18	395.45
513.539	367.37
513.899	341.83
514.258	367.37
514.617	415.88
514.976	341.83
515.335	364.81
515.694	398.01
516.053	395.45
516.412	403.11
516.771	418.43
517.129	428.65
517.488	446.52
517.847	346.94
518.205	403.11
518.564	400.56
518.922	390.35
519.281	403.11
519.639	400.56
519.998	408.22
520.356	405.67
520.714	354.6
521.073	367.37
521.431	354.6
521.789	375.03
522.147	362.26
522.505	443.97
522.863	400.56
523.221	352.05
523.579	443.97
523.937	387.79
524.295	418.43
524.652	359.71
525.01	433.76
525.368	387.79
525.725	420.99
526.083	446.52
526.44	344.39
526.798	336.73
527.155	380.13
527.513	410.77
527.87	398.01
528.227	408.22
528.584	364.81
528.942	318.85
529.299	410.77
529.656	502.7
530.013	436.31
530.37	428.65
530.727	415.88
531.083	369.92
531.44	349.49
531.797	367.37
532.154	354.6
532.511	413.33
532.867	354.6
533.224	318.85
533.58	359.71
533.937	377.58
534.293	311.19
534.65	377.58
535.006	364.81
535.362	364.81
535.718	400.56
536.075	418.43
536.431	415.88
536.787	398.01
537.143	357.15
537.499	415.88
537.855	364.81
538.211	418.43
538.567	395.45
538.923	456.74
539.278	408.22
539.634	372.47
539.99	415.88
540.345	403.11
540.701	403.11
541.056	385.24
541.412	423.54
541.767	413.33
542.123	372.47
542.478	357.15
542.833	372.47
543.188	428.65
543.544	398.01
543.899	403.11
544.254	369.92
544.609	377.58
544.964	400.56
545.319	420.99
545.674	382.69
546.029	400.56
546.383	451.63
546.738	369.92
547.093	380.13
547.447	398.01
547.802	369.92
548.157	385.24
548.511	390.35
548.866	390.35
549.22	410.77
549.574	410.77
549.929	387.79
550.283	354.6
550.637	390.35
550.991	426.09
551.345	420.99
551.699	380.13
552.053	346.94
552.407	369.92
552.761	382.69
553.115	359.71
553.469	415.88
553.823	461.84
554.176	420.99
554.53	433.76
554.884	380.13
555.237	694.2
555.591	451.63
555.944	354.6
556.298	408.22
556.651	410.77
557.005	395.45
557.358	339.28
557.711	387.79
558.064	395.45
558.417	390.35
558.771	484.82
559.124	364.81
559.477	472.06
559.83	443.97
560.182	329.07
560.535	392.9
560.888	357.15
561.241	334.17
561.594	382.69
561.946	410.77
562.299	387.79
562.651	349.49
563.004	357.15
563.356	321.41
563.709	375.03
564.061	420.99
564.413	369.92
564.766	400.56
565.118	336.73
565.47	438.86
565.822	369.92
566.174	339.28
566.526	395.45
566.878	400.56
567.23	390.35
567.582	390.35
567.934	436.31
568.286	413.33
568.638	344.39
568.989	415.88
569.341	400.56
569.693	377.58
570.044	372.47
570.396	311.19
570.747	418.43
571.098	385.24
571.45	385.24
571.801	408.22
572.152	372.47
572.504	364.81
572.855	357.15
573.206	428.65
573.557	400.56
573.908	346.94
574.259	352.05
574.61	390.35
574.961	400.56
575.311	405.67
575.662	385.24
576.013	413.33
576.364	385.24
576.714	359.71
577.065	372.47
577.415	392.9
577.766	398.01
578.116	443.97
578.467	451.63
578.817	428.65
579.167	398.01
579.518	482.27
579.868	428.65
580.218	390.35
580.568	420.99
580.918	405.67
581.268	395.45
581.618	329.07
581.968	405.67
582.318	329.07
582.668	346.94
583.017	387.79
583.367	436.31
583.717	423.54
584.066	431.2
584.416	364.81
584.765	380.13
585.115	377.58
585.464	326.51
585.814	359.71
586.163	341.83
586.512	329.07
586.862	354.6
587.211	329.07
587.56	329.07
587.909	387.79
588.258	349.49
588.607	392.9
588.956	426.09
589.305	349.49
589.654	369.92
590.002	405.67
590.351	377.58
590.7	321.41
591.048	364.81
591.397	405.67
591.746	346.94
592.094	359.71
592.443	372.47
592.791	367.37
593.139	413.33
593.488	451.63
593.836	415.88
594.184	398.01
594.532	436.31
594.88	413.33
595.228	400.56
595.576	341.83
595.924	390.35
596.272	331.62
596.62	382.69
596.968	400.56
597.316	382.69
597.664	349.49
598.011	326.51
598.359	372.47
598.706	329.07
599.054	423.54
599.402	456.74
599.749	385.24
600.096	346.94
600.444	349.49
600.791	321.41
601.138	403.11
601.485	321.41
601.833	364.81
602.18	375.03
602.527	408.22
602.874	418.43
603.221	377.58
603.568	392.9
603.914	413.33
604.261	441.42
604.608	369.92
604.955	400.56
605.301	423.54
605.648	336.73
605.995	308.64
606.341	349.49
606.688	364.81
607.034	408.22
607.38	395.45
607.727	415.88
608.073	354.6
608.419	408.22
608.765	313.75
609.112	382.69
609.458	398.01
609.804	408.22
610.15	354.6
610.496	352.05
610.842	413.33
611.187	385.24
611.533	344.39
611.879	357.15
612.225	382.69
612.57	382.69
612.916	382.69
613.261	398.01
613.607	461.84
613.952	362.26
614.298	392.9
614.643	438.86
614.989	385.24
615.334	431.2
615.679	433.76
616.024	362.26
616.369	390.35
616.714	367.37
617.059	390.35
617.404	413.33
617.749	357.15
618.094	385.24
618.439	344.39
618.784	400.56
619.129	346.94
619.473	385.24
619.818	387.79
620.163	367.37
620.507	405.67
620.852	364.81
621.196	372.47
621.54	359.71
621.885	375.03
622.229	459.29
622.573	367.37
622.918	382.69
623.262	385.24
623.606	377.58
623.95	400.56
624.294	395.45
624.638	403.11
624.982	382.69
625.326	441.42
625.67	272.89
626.013	367.37
626.357	336.73
626.701	341.83
627.044	482.27
627.388	438.86
627.731	369.92
628.075	400.56
628.418	392.9
628.762	375.03
629.105	323.96
629.448	390.35
629.792	446.52
630.135	418.43
630.478	387.79
630.821	382.69
631.164	410.77
631.507	372.47
631.85	349.49
632.193	334.17
632.536	352.05
632.879	364.81
633.221	367.37
633.564	364.81
633.907	316.3
634.249	357.15
634.592	418.43
634.935	441.42
635.277	372.47
635.619	339.28
635.962	385.24
636.304	303.53
636.646	395.45
636.989	372.47
637.331	400.56
637.673	392.9
638.015	357.15
638.357	357.15
638.699	408.22
639.041	364.81
639.383	362.26
639.725	415.88
640.067	400.56
640.408	405.67
640.75	372.47
641.092	316.3
641.433	382.69
641.775	359.71
642.116	403.11
642.458	387.79
642.799	375.03
643.141	398.01
643.482	405.67
643.823	418.43
644.164	405.67
644.506	469.5
644.847	344.39
645.188	387.79
645.529	344.39
645.87	306.09
646.211	323.96
646.552	352.05
646.893	415.88
647.233	413.33
647.574	405.67
647.915	346.94
648.255	357.15
648.596	428.65
648.937	418.43
649.277	290.77
649.618	415.88
649.958	375.03
650.298	334.17
650.639	395.45
650.979	413.33
651.319	341.83
651.659	392.9
651.999	392.9
652.339	443.97
652.679	392.9
653.019	403.11
653.359	433.76
653.699	372.47
654.039	428.65
654.379	433.76
654.719	357.15
655.058	357.15
655.398	423.54
655.737	477.16
656.077	311.19
656.416	441.42
656.756	415.88
657.095	362.26
657.435	413.33
657.774	357.15
658.113	472.06
658.452	346.94
658.792	377.58
659.131	316.3
659.47	420.99
659.809	431.2
660.148	451.63
660.487	359.71
660.826	339.28
661.164	359.71
661.503	385.24
661.842	329.07
662.181	405.67
662.519	451.63
662.858	420.99
663.196	372.47
663.535	313.75
663.873	372.47
664.212	380.13
664.55	390.35
664.888	290.77
665.226	311.19
665.565	372.47
665.903	569.08
666.241	410.77
666.579	377.58
666.917	377.58
667.255	387.79
667.593	387.79
667.931	420.99
668.268	359.71
668.606	431.2
668.944	354.6
669.282	400.56
669.619	375.03
669.957	395.45
670.294	390.35
670.632	346.94
670.969	334.17
671.307	403.11
671.644	413.33
671.981	395.45
672.318	349.49
672.656	362.26
672.993	382.69
673.33	357.15
673.667	362.26
674.004	415.88
674.341	352.05
674.678	469.5
675.015	410.77
675.351	408.22
675.688	346.94
676.025	367.37
676.362	385.24
676.698	380.13
677.035	375.03
677.371	431.2
677.708	359.71
678.044	300.98
678.38	410.77
678.717	413.33
679.053	375.03
679.389	431.2
679.725	392.9
680.062	420.99
680.398	357.15
680.734	306.09
681.07	380.13
681.406	346.94
681.742	334.17
682.077	293.32
682.413	354.6
682.749	375.03
683.085	339.28
683.42	377.58
683.756	392.9
684.091	438.86
684.427	382.69
684.762	405.67
685.098	390.35
685.433	346.94
685.768	400.56
686.104	362.26
686.439	398.01
686.774	359.71
687.109	339.28
687.444	364.81
687.779	418.43
688.114	364.81
688.449	369.92
688.784	339.28
689.119	321.41
689.454	323.96
689.789	321.41
690.123	349.49
690.458	395.45
690.792	362.26
691.127	367.37
691.461	438.86
691.796	313.75
692.13	357.15
692.465	398.01
692.799	405.67
693.133	364.81
693.467	331.62
693.802	308.64
694.136	349.49
694.47	403.11
694.804	372.47
695.138	377.58
695.472	344.39
695.806	354.6
696.139	367.37
696.473	357.15
696.807	334.17
697.141	341.83
697.474	382.69
697.808	400.56
698.141	369.92
698.475	306.09
698.808	341.83
699.142	398.01
699.475	318.85
699.808	369.92
700.142	349.49
700.475	403.11
700.808	364.81
701.141	395.45
701.474	405.67
701.807	308.64
702.14	341.83
702.473	387.79
702.806	438.86
703.139	387.79
703.472	369.92
703.804	352.05
704.137	369.92
704.47	344.39
704.802	354.6
705.135	385.24
705.467	362.26
705.8	344.39
706.132	321.41
706.464	398.01
706.797	438.86
707.129	403.11
707.461	367.37
707.793	403.11
708.125	364.81
708.457	405.67
708.789	377.58
709.121	385.24
709.453	387.79
709.785	382.69
710.117	377.58
710.449	375.03
710.781	387.79
711.112	375.03
711.444	316.3
711.775	354.6
712.107	357.15
712.438	344.39
712.77	387.79
713.101	359.71
713.433	398.01
713.764	415.88
714.095	321.41
714.426	420.99
714.757	359.71
715.089	354.6
715.42	377.58
715.751	362.26
716.082	364.81
716.412	298.43
716.743	372.47
717.074	426.09
717.405	362.26
717.736	352.05
718.066	364.81
718.397	403.11
718.727	433.76
719.058	341.83
719.388	372.47
719.719	352.05
720.049	362.26
720.38	377.58
720.71	341.83
721.04	433.76
721.37	413.33
721.7	387.79
722.031	354.6
722.361	316.3
722.691	346.94
723.021	372.47
723.35	380.13
723.68	326.51
724.01	420.99
724.34	359.71
724.67	423.54
724.999	390.35
725.329	308.64
725.658	390.35
725.988	400.56
726.317	428.65
726.647	359.71
726.976	369.92
727.306	349.49
727.635	334.17
727.964	400.56
728.293	349.49
728.622	344.39
728.952	313.75
729.281	346.94
729.61	375.03
729.939	349.49
730.267	346.94
730.596	367.37
730.925	359.71
731.254	433.76
731.583	369.92
731.911	334.17
732.24	339.28
732.568	380.13
732.897	372.47
733.225	369.92
733.554	326.51
733.882	349.49
734.21	329.07
734.539	326.51
734.867	313.75
735.195	329.07
735.523	359.71
735.851	359.71
736.179	344.39
736.507	377.58
736.835	359.71
737.163	344.39
737.491	329.07
737.819	362.26
738.147	380.13
738.474	344.39
738.802	336.73
739.13	375.03
739.457	352.05
739.785	329.07
740.112	346.94
740.44	369.92
740.767	408.22
741.094	413.33
741.422	420.99
741.749	380.13
742.076	344.39
742.403	349.49
742.73	418.43
743.057	405.67
743.384	375.03
743.711	326.51
744.038	318.85
744.365	400.56
744.692	398.01
745.018	362.26
745.345	354.6
745.672	364.81
745.998	364.81
746.325	375.03
746.651	408.22
746.978	357.15
747.304	341.83
747.631	290.77
747.957	336.73
748.283	354.6
748.61	349.49
748.936	387.79
749.262	398.01
749.588	431.2
749.914	326.51
750.24	400.56
750.566	375.03
750.892	441.42
751.218	385.24
751.543	323.96
751.869	329.07
752.195	382.69
752.521	395.45
752.846	311.19
753.172	408.22
753.497	369.92
753.823	362.26
754.148	341.83
754.473	438.86
754.799	375.03
755.124	390.35
755.449	367.37
755.774	372.47
756.1	339.28
756.425	403.11
756.75	359.71
757.075	451.63
757.4	489.93
757.724	395.45
758.049	346.94
758.374	405.67
758.699	400.56
759.024	349.49
759.348	285.66
759.673	359.71
759.997	341.83
760.322	354.6
760.646	426.09
760.971	369.92
761.295	375.03
761.619	428.65
761.944	377.58
762.268	341.83
762.592	339.28
762.916	418.43
763.24	339.28
763.564	334.17
763.888	280.55
764.212	369.92
764.536	405.67
764.86	415.88
765.184	418.43
765.508	443.97
765.831	477.16
766.155	755.48
766.478	495.04
766.802	380.13
767.126	495.04
767.449	454.18
767.772	487.38
768.096	546.1
768.419	512.91
768.742	546.1
769.066	530.78
769.389	592.06
769.712	663.56
770.035	584.4
770.358	678.88
770.681	671.22
771.004	671.22
771.327	676.33
771.65	717.18
771.972	724.84
772.295	786.12
772.618	755.48
772.941	747.82
773.263	676.33
773.586	819.32
773.908	895.92
774.231	865.28
774.553	931.66
774.875	916.34
775.198	972.52
775.52	995.5
775.842	939.32
776.164	987.84
776.487	1000.61
776.809	977.62
777.131	1061.89
777.453	957.2
777.775	975.07
778.096	1059.33
778.418	1118.06
778.74	1038.91
779.062	1128.27
779.384	1112.95
779.705	1296.8
780.027	1337.65
780.348	1255.94
780.67	1337.65
780.991	1437.23
781.313	1539.37
781.634	1626.18
781.955	1472.98
782.277	1488.3
782.598	1598.1
782.919	1557.24
783.24	1498.51
783.561	1621.08
783.882	1536.81
784.203	1598.1
784.524	1628.74
784.845	1572.56
785.166	1434.68
785.487	1592.99
785.807	1613.42
786.128	1603.2
786.449	1600.65
786.769	1730.87
787.09	1866.2
787.41	1922.37
787.731	2055.15
788.051	2129.2
788.372	2210.91
788.692	2236.44
789.012	2244.1
789.332	2198.14
789.653	2272.19
789.973	2456.03
790.293	2371.77
790.613	2256.87
790.933	2177.71
791.253	2185.37
791.573	2205.8
791.893	2111.32
792.212	2177.71
792.532	2223.67
792.852	2136.86
793.171	2050.04
793.491	1924.93
793.811	2070.47
794.13	1924.93
794.45	1855.99
794.769	1751.3
795.088	1776.83
795.408	1730.87
795.727	1889.18
796.046	1735.98
796.365	1781.94
796.684	1835.56
797.004	1746.19
797.323	1932.59
797.642	2203.25
797.96	2261.97
798.279	2348.79
798.598	2320.7
798.917	2305.38
799.236	2195.59
799.554	1965.78
799.873	1815.13
800.192	1998.98
800.51	2042.38
800.829	2019.4
801.147	2001.53
801.466	1930.03
801.784	1930.03
802.102	1937.69
802.421	2011.74
802.739	2162.39
803.057	2228.78
803.375	2024.51
803.693	2047.49
804.011	2259.42
804.329	2374.32
804.647	2228.78
804.965	2203.25
805.283	2032.17
805.601	1927.48
805.918	1848.33
806.236	1758.96
806.554	1720.66
806.871	1810.03
807.189	1914.71
807.507	1978.55
807.824	2024.51
808.141	1884.07
808.459	1585.33
808.776	1536.81
809.093	1485.75
809.411	1319.78
809.728	1281.48
810.045	1386.17
810.362	1429.57
810.679	1398.93
810.996	1278.92
811.313	1342.76
811.63	1342.76
811.947	1396.38
812.264	1396.38
812.58	1232.96
812.897	1261.05
813.214	1255.94
813.53	1286.58
813.847	1409.15
814.163	1363.18
814.48	1255.94
814.796	1309.56
815.113	1227.86
815.429	1212.54
815.745	1066.99
816.061	1105.29
816.378	1054.23
816.694	1044.01
817.01	990.39
817.326	1010.82
817.642	998.05
817.958	906.13
818.274	967.41
818.59	957.2
818.905	844.85
819.221	939.32
819.537	1041.46
819.852	980.18
820.168	934.22
820.484	913.79
820.799	916.34
821.115	875.49
821.43	880.6
821.745	888.26
822.061	842.3
822.376	781.01
822.691	852.51
823.006	809.1
823.322	742.71
823.637	740.16
823.952	724.84
824.267	755.48
824.582	763.14
824.897	791.23
825.211	821.87
825.526	747.82
825.841	798.89
826.156	709.52
826.47	760.59
826.785	740.16
827.1	630.37
827.414	630.37
827.729	668.67
828.043	704.41
828.357	607.38
828.672	638.03
828.986	643.13
829.3	709.52
829.614	609.94
829.929	627.81
830.243	489.93
830.557	553.76
830.871	541
831.185	474.61
831.499	489.93
831.812	528.23
832.126	507.8
832.44	558.87
832.754	556.32
833.067	584.4
833.381	627.81
833.695	607.38
834.008	704.41
834.322	530.78
834.635	523.12
834.948	546.1
835.262	489.93
835.575	502.7
835.888	512.91
836.201	512.91
836.515	520.57
836.828	497.59
837.141	446.52
837.454	446.52
837.767	446.52
838.08	415.88
838.392	459.29
838.705	423.54
839.018	428.65
839.331	413.33
839.643	489.93
839.956	385.24
840.269	398.01
840.581	420.99
840.894	449.08
841.206	456.74
841.519	586.96
841.831	446.52
842.143	390.35
842.455	369.92
842.768	382.69
843.08	428.65
843.392	459.29
843.704	395.45
844.016	375.03
844.328	403.11
844.64	420.99
844.952	390.35
845.263	443.97
845.575	449.08
845.887	413.33
846.199	415.88
846.51	395.45
846.822	372.47
847.133	293.32
847.445	418.43
847.756	423.54
848.068	392.9
848.379	403.11
848.69	362.26
849.002	344.39
849.313	382.69
849.624	336.73
849.935	387.79
850.246	418.43
850.557	428.65
850.868	321.41
851.179	405.67
851.49	405.67
851.801	354.6
852.112	308.64
852.422	459.29
852.733	372.47
853.044	408.22
853.354	423.54
853.665	359.71
853.975	461.84
854.286	372.47
854.596	339.28
854.906	326.51
855.217	395.45
855.527	329.07
855.837	408.22
856.147	380.13
856.458	375.03
856.768	372.47
857.078	344.39
857.388	257.57
857.698	344.39
858.007	403.11
858.317	321.41
858.627	326.51
858.937	415.88
859.246	443.97
859.556	418.43
859.866	449.08
860.175	405.67
860.485	331.62
860.794	357.15
861.104	318.85
861.413	318.85
861.722	418.43
862.032	367.37
862.341	390.35
862.65	390.35
862.959	354.6
863.268	375.03
863.577	395.45
863.886	436.31
864.195	385.24
864.504	346.94
864.813	398.01
865.122	413.33
865.43	300.98
865.739	428.65
866.048	349.49
866.356	390.35
866.665	372.47
866.973	408.22
867.282	364.81
867.59	390.35
867.899	395.45
868.207	382.69
868.515	390.35
868.823	398.01
869.132	318.85
869.44	326.51
869.748	372.47
870.056	375.03
870.364	364.81
870.672	420.99
870.98	431.2
871.288	341.83
871.595	321.41
871.903	408.22
872.211	375.03
872.518	390.35
872.826	495.04
873.134	362.26
873.441	385.24
873.749	357.15
874.056	354.6
874.363	331.62
874.671	382.69
874.978	387.79
875.285	308.64
875.592	249.91
875.9	372.47
876.207	387.79
876.514	364.81
876.821	364.81
877.128	352.05
877.435	382.69
877.741	323.96
878.048	346.94
878.355	362.26
878.662	377.58
878.968	346.94
879.275	372.47
879.582	334.17
879.888	346.94
880.195	364.81
880.501	385.24
880.807	336.73
881.114	377.58
881.42	436.31
881.726	362.26
882.032	484.82
882.339	431.2
882.645	405.67
882.951	398.01
883.257	367.37
883.563	346.94
883.869	344.39
884.174	346.94
884.48	339.28
884.786	375.03
885.092	329.07
885.397	300.98
885.703	390.35
886.009	339.28
886.314	382.69
886.62	329.07
886.925	346.94
887.231	329.07
887.536	349.49
887.841	362.26
888.146	390.35
888.452	405.67
888.757	354.6
889.062	303.53
889.367	357.15
889.672	364.81
889.977	398.01
890.282	341.83
890.587	362.26
890.892	339.28
891.196	346.94
891.501	349.49
891.806	398.01
892.11	331.62
892.415	344.39
892.72	390.35
893.024	369.92
893.328	431.2
893.633	398.01
893.937	352.05
894.242	431.2
894.546	385.24
894.85	390.35
895.154	354.6
895.458	326.51
895.762	364.81
896.066	382.69
896.37	390.35
896.674	403.11
896.978	415.88
897.282	398.01
897.586	387.79
897.89	426.09
898.193	341.83
898.497	398.01
898.801	293.32
899.104	354.6
899.408	398.01
899.711	443.97
900.014	354.6
900.318	326.51
900.621	311.19
900.924	369.92
901.228	392.9
901.531	423.54
901.834	313.75
902.137	352.05
902.44	344.39
902.743	387.79
903.046	367.37
903.349	326.51
903.652	387.79
903.955	367.37
904.257	293.32
904.56	380.13
904.863	334.17
905.165	329.07
905.468	441.42
905.77	398.01
906.073	410.77
906.375	346.94
906.678	369.92
906.98	359.71
907.282	380.13
907.584	364.81
907.887	375.03
908.189	400.56
908.491	405.67
908.793	400.56
909.095	438.86
909.397	321.41
909.699	405.67
910.001	321.41
910.302	380.13
910.604	369.92
910.906	362.26
911.208	418.43
911.509	392.9
911.811	405.67
912.112	369.92
912.414	270.34
912.715	298.43
913.017	316.3
913.318	316.3
913.619	349.49
913.92	326.51
914.222	385.24
914.523	395.45
914.824	339.28
915.125	329.07
915.426	395.45
915.727	428.65
916.028	377.58
916.329	313.75
916.63	364.81
916.93	443.97
917.231	405.67
917.532	329.07
917.832	326.51
918.133	249.91
918.434	285.66
918.734	346.94
919.034	339.28
919.335	354.6
919.635	418.43
919.935	334.17
920.236	390.35
920.536	349.49
920.836	382.69
921.136	405.67
921.436	541
921.736	364.81
922.036	380.13
922.336	408.22
922.636	346.94
922.936	369.92
923.236	372.47
923.535	354.6
923.835	420.99
924.135	344.39
924.434	395.45
924.734	398.01
925.033	346.94
925.333	400.56
925.632	382.69
925.932	372.47
926.231	318.85
926.53	323.96
926.83	405.67
927.129	357.15
927.428	316.3
927.727	334.17
928.026	306.09
928.325	357.15
928.624	364.81
928.923	359.71
929.222	341.83
929.52	390.35
929.819	344.39
930.118	372.47
930.417	308.64
930.715	326.51
931.014	369.92
931.312	398.01
931.611	382.69
931.909	354.6
932.207	375.03
932.506	385.24
932.804	390.35
933.102	295.87
933.401	306.09
933.699	387.79
933.997	382.69
934.295	492.48
934.593	400.56
934.891	390.35
935.189	267.79
935.487	357.15
935.784	415.88
936.082	456.74
936.38	405.67
936.677	339.28
936.975	318.85
937.273	321.41
937.57	352.05
937.868	346.94
938.165	354.6
938.463	344.39
938.76	403.11
939.057	387.79
939.354	395.45
939.652	341.83
939.949	331.62
940.246	357.15
940.543	364.81
940.84	306.09
941.137	398.01
941.434	372.47
941.731	390.35
942.028	357.15
942.324	354.6
942.621	375.03
942.918	331.62
943.214	303.53
943.511	354.6
943.807	346.94
944.104	382.69
944.4	418.43
944.697	398.01
944.993	408.22
945.29	405.67
945.586	372.47
945.882	318.85
946.178	349.49
946.474	395.45
946.77	382.69
947.066	336.73
947.362	354.6
947.658	349.49
947.954	346.94
948.25	367.37
948.546	369.92
948.842	377.58
949.137	364.81
949.433	334.17
949.729	390.35
950.024	308.64
950.32	395.45
950.615	367.37
950.91	372.47
951.206	390.35
951.501	375.03
951.796	362.26
952.092	303.53
952.387	438.86
952.682	456.74
952.977	428.65
953.272	382.69
953.567	357.15
953.862	390.35
954.157	413.33
954.452	441.42
954.747	382.69
955.041	339.28
955.336	431.2
955.631	372.47
955.925	364.81
956.22	306.09
956.514	395.45
956.809	349.49
957.103	346.94
957.398	372.47
957.692	375.03
957.986	331.62
958.281	359.71
958.575	405.67
958.869	382.69
959.163	346.94
959.457	300.98
959.751	344.39
960.045	382.69
960.339	408.22
960.633	329.07
960.927	377.58
961.221	290.77
961.514	352.05
961.808	339.28
962.102	308.64
962.395	354.6
962.689	336.73
962.982	377.58
963.276	385.24
963.569	420.99
963.862	387.79
964.156	415.88
964.449	323.96
964.742	362.26
965.035	390.35
965.328	369.92
965.622	367.37
965.915	285.66
966.208	357.15
966.5	415.88
966.793	364.81
967.086	477.16
967.379	375.03
967.672	323.96
967.964	352.05
968.257	367.37
968.55	372.47
968.842	398.01
969.135	326.51
969.427	408.22
969.72	400.56
970.012	387.79
970.304	369.92
970.597	318.85
970.889	385.24
971.181	375.03
971.473	323.96
971.765	415.88
972.057	334.17
972.349	377.58
972.641	367.37
972.933	362.26
973.225	382.69
973.517	300.98
973.809	349.49
974.1	359.71
974.392	377.58
974.684	321.41
974.975	316.3
975.267	415.88
975.558	318.85
975.85	385.24
976.141	408.22
976.432	308.64
976.724	377.58
977.015	369.92
977.306	423.54
977.597	323.96
977.888	344.39
978.179	410.77
978.47	410.77
978.761	433.76
979.052	423.54
979.343	357.15
979.634	354.6
979.925	323.96
980.215	352.05
980.506	443.97
980.797	395.45
981.087	311.19
981.378	336.73
981.668	331.62
981.959	362.26
982.249	352.05
982.54	341.83
982.83	390.35
983.12	382.69
983.41	316.3
983.701	341.83
983.991	352.05
984.281	385.24
984.571	443.97
984.861	375.03
985.151	377.58
985.441	362.26
985.73	306.09
986.02	346.94
986.31	367.37
986.6	375.03
986.889	398.01
987.179	390.35
987.469	329.07
987.758	354.6
988.048	346.94
988.337	400.56
988.626	334.17
988.916	339.28
989.205	372.47
989.494	308.64
989.783	334.17
990.073	331.62
990.362	349.49
990.651	352.05
990.94	329.07
991.229	387.79
991.518	372.47
991.806	369.92
992.095	382.69
992.384	400.56
992.673	323.96
992.961	311.19
993.25	329.07
993.539	408.22
993.827	385.24
994.116	362.26
994.404	346.94
994.692	390.35
994.981	349.49
995.269	285.66
995.557	372.47
995.846	364.81
996.134	334.17
996.422	400.56
996.71	349.49
996.998	285.66
997.286	372.47
997.574	316.3
997.862	420.99
998.15	329.07
998.437	364.81
998.725	341.83
999.013	375.03
999.3	451.63
999.588	380.13
999.876	290.77
1000.163	387.79
1000.45	433.76
1000.738	339.28
1001.025	313.75
1001.313	392.9
1001.6	359.71
1001.887	300.98
1002.174	262.68
1002.461	372.47
1002.748	372.47
1003.036	385.24
1003.322	382.69
1003.609	260.13
1003.896	377.58
1004.183	387.79
1004.47	352.05
1004.757	341.83
1005.043	382.69
1005.33	375.03
1005.617	344.39
1005.903	362.26
1006.19	398.01
1006.476	408.22
1006.763	331.62
1007.049	352.05
1007.335	392.9
1007.622	369.92
1007.908	349.49
1008.194	418.43
1008.48	377.58
1008.766	341.83
1009.053	369.92
1009.339	339.28
1009.625	410.77
1009.91	349.49
1010.196	382.69
1010.482	375.03
1010.768	400.56
1011.054	344.39
1011.339	405.67
1011.625	387.79
1011.911	357.15
1012.196	420.99
1012.482	362.26
1012.767	382.69
1013.052	441.42
1013.338	354.6
1013.623	344.39
1013.908	433.76
1014.194	321.41
1014.479	364.81
1014.764	295.87
1015.049	321.41
1015.334	326.51
1015.619	377.58
1015.904	331.62
1016.189	339.28
1016.474	362.26
1016.758	385.24
1017.043	390.35
1017.328	357.15
1017.613	390.35
1017.897	346.94
1018.182	341.83
1018.466	395.45
1018.751	334.17
1019.035	354.6
1019.32	410.77
1019.604	398.01
1019.888	357.15
1020.172	357.15
1020.457	357.15
