Data from 2025-12-03_xpw_interference_micrometer_634_reference_FLMS141361__94__544.txt Node

Date: Wed Dec 03 15:52:28 MST 2025
User: james
Spectrometer: FLMS14136
Trigger mode: 0
Integration Time (sec): 1.000000E-1
Scans to average: 1
Electric dark correction enabled: true
Nonlinearity correction enabled: false
Boxcar width: 0
XAxis mode: Wavelengths
Number of Pixels in Spectrum: 2048
>>>>>Begin Spectral Data<<<<<
339.315	-21.07
339.697	-21.07
340.079	-21.07
340.461	-67.03
340.843	-156.39
341.225	-51.71
341.607	-105.33
341.989	-118.09
342.371	-105.33
342.752	-90.01
343.134	-118.09
343.516	-84.9
343.897	52.98
344.279	32.56
344.661	-0.64
345.042	12.13
345.423	78.52
345.805	152.56
346.186	60.64
346.567	106.6
346.949	178.1
347.33	185.76
347.711	234.27
348.092	152.56
348.473	216.4
348.854	308.32
349.235	321.09
349.616	270.02
349.997	361.94
350.378	321.09
350.758	336.41
351.139	338.96
351.52	323.64
351.9	354.28
352.281	354.28
352.661	407.9
353.042	397.69
353.422	354.28
353.803	410.46
354.183	425.78
354.563	361.94
354.943	351.73
355.324	379.81
355.704	413.01
356.084	410.46
356.464	390.03
356.844	384.92
357.224	423.22
357.603	410.46
357.983	315.98
358.363	336.41
358.743	364.49
359.122	390.03
359.502	367.05
359.882	392.58
360.261	397.69
360.641	338.96
361.02	346.62
361.399	326.19
361.779	364.49
362.158	351.73
362.537	387.48
362.916	392.58
363.296	377.26
363.675	338.96
364.054	374.71
364.433	377.26
364.812	354.28
365.19	341.51
365.569	326.19
365.948	282.79
366.327	346.62
366.705	328.75
367.084	298.11
367.463	392.58
367.841	333.85
368.22	372.15
368.598	382.37
368.977	300.66
369.355	338.96
369.733	323.64
370.111	338.96
370.49	369.6
370.868	384.92
371.246	361.94
371.624	349.17
372.002	392.58
372.38	392.58
372.758	354.28
373.136	298.11
373.513	392.58
373.891	344.07
374.269	344.07
374.646	400.24
375.024	310.87
375.402	318.53
375.779	410.46
376.157	349.17
376.534	305.77
376.911	395.14
377.289	361.94
377.666	397.69
378.043	372.15
378.42	377.26
378.797	395.14
379.175	374.71
379.552	438.54
379.929	303.21
380.305	361.94
380.682	344.07
381.059	359.39
381.436	356.83
381.813	333.85
382.189	384.92
382.566	318.53
382.943	448.76
383.319	382.37
383.696	369.6
384.072	252.15
384.448	397.69
384.825	433.44
385.201	369.6
385.577	367.05
385.953	333.85
386.329	382.37
386.706	338.96
387.082	418.12
387.458	351.73
387.834	374.71
388.209	395.14
388.585	290.45
388.961	305.77
389.337	369.6
389.713	400.24
390.088	425.78
390.464	338.96
390.839	341.51
391.215	377.26
391.59	290.45
391.966	354.28
392.341	438.54
392.716	420.67
393.092	367.05
393.467	400.24
393.842	354.28
394.217	341.51
394.592	377.26
394.967	392.58
395.342	367.05
395.717	364.49
396.092	318.53
396.467	387.48
396.841	374.71
397.216	367.05
397.591	430.88
397.965	407.9
398.34	407.9
398.714	374.71
399.089	387.48
399.463	387.48
399.838	448.76
400.212	382.37
400.586	374.71
400.961	387.48
401.335	397.69
401.709	331.3
402.083	390.03
402.457	369.6
402.831	423.22
403.205	382.37
403.579	420.67
403.953	377.26
404.326	397.69
404.7	384.92
405.074	405.35
405.447	361.94
405.821	392.58
406.195	397.69
406.568	384.92
406.942	359.39
407.315	354.28
407.688	415.56
408.062	305.77
408.435	410.46
408.808	407.9
409.181	405.35
409.554	379.81
409.927	423.22
410.3	402.8
410.673	372.15
411.046	374.71
411.419	418.12
411.792	364.49
412.165	369.6
412.537	400.24
412.91	410.46
413.283	356.83
413.655	400.24
414.028	423.22
414.4	407.9
414.773	413.01
415.145	315.98
415.517	326.19
415.889	333.85
416.262	402.8
416.634	338.96
417.006	387.48
417.378	397.69
417.75	425.78
418.122	481.95
418.494	413.01
418.866	356.83
419.238	361.94
419.609	379.81
419.981	341.51
420.353	430.88
420.725	331.3
421.096	430.88
421.468	372.15
421.839	435.99
422.211	377.26
422.582	374.71
422.953	428.33
423.325	410.46
423.696	405.35
424.067	382.37
424.438	390.03
424.809	351.73
425.18	377.26
425.551	410.46
425.922	441.1
426.293	351.73
426.664	349.17
427.035	407.9
427.406	305.77
427.776	377.26
428.147	369.6
428.518	387.48
428.888	397.69
429.259	387.48
429.629	387.48
429.999	382.37
430.37	413.01
430.74	413.01
431.11	356.83
431.481	423.22
431.851	333.85
432.221	338.96
432.591	364.49
432.961	321.09
433.331	400.24
433.701	405.35
434.071	367.05
434.441	400.24
434.81	435.99
435.18	372.15
435.55	400.24
435.919	341.51
436.289	382.37
436.658	384.92
437.028	415.56
437.397	392.58
437.767	405.35
438.136	410.46
438.505	318.53
438.875	430.88
439.244	441.1
439.613	405.35
439.982	433.44
440.351	361.94
440.72	402.8
441.089	402.8
441.458	374.71
441.827	395.14
442.196	369.6
442.564	497.27
442.933	395.14
443.302	390.03
443.67	446.2
444.039	423.22
444.407	405.35
444.776	420.67
445.144	382.37
445.513	405.35
445.881	415.56
446.249	369.6
446.617	315.98
446.986	359.39
447.354	405.35
447.722	349.17
448.09	387.48
448.458	407.9
448.826	402.8
449.194	374.71
449.561	361.94
449.929	382.37
450.297	469.18
450.665	374.71
451.032	313.43
451.4	425.78
451.767	446.2
452.135	443.65
452.502	379.81
452.87	400.24
453.237	425.78
453.604	425.78
453.971	420.67
454.339	418.12
454.706	448.76
455.073	430.88
455.44	359.39
455.807	382.37
456.174	382.37
456.541	377.26
456.908	407.9
457.274	407.9
457.641	430.88
458.008	344.07
458.374	356.83
458.741	443.65
459.108	413.01
459.474	469.18
459.841	446.2
460.207	515.14
460.573	430.88
460.94	359.39
461.306	402.8
461.672	400.24
462.038	384.92
462.404	377.26
462.771	438.54
463.137	425.78
463.503	423.22
463.868	420.67
464.234	387.48
464.6	382.37
464.966	379.81
465.332	359.39
465.697	382.37
466.063	407.9
466.429	425.78
466.794	438.54
467.16	464.08
467.525	435.99
467.89	443.65
468.256	425.78
468.621	423.22
468.986	430.88
469.351	456.42
469.717	384.92
470.082	451.31
470.447	492.16
470.812	443.65
471.177	405.35
471.542	390.03
471.906	402.8
472.271	438.54
472.636	456.42
473.001	272.57
473.365	423.22
473.73	415.56
474.094	382.37
474.459	379.81
474.823	369.6
475.188	441.1
475.552	476.84
475.917	420.67
476.281	402.8
476.645	423.22
477.009	428.33
477.373	435.99
477.737	402.8
478.101	456.42
478.465	430.88
478.829	453.86
479.193	461.52
479.557	415.56
479.921	446.2
480.284	428.33
480.648	441.1
481.012	372.15
481.375	379.81
481.739	395.14
482.102	413.01
482.466	469.18
482.829	451.31
483.193	448.76
483.556	420.67
483.919	344.07
484.282	458.97
484.645	433.44
485.009	433.44
485.372	402.8
485.735	364.49
486.098	428.33
486.46	359.39
486.823	384.92
487.186	369.6
487.549	349.17
487.912	413.01
488.274	433.44
488.637	471.74
488.999	423.22
489.362	433.44
489.724	420.67
490.087	364.49
490.449	351.73
490.811	369.6
491.174	430.88
491.536	443.65
491.898	471.74
492.26	384.92
492.622	418.12
492.984	433.44
493.346	441.1
493.708	392.58
494.07	420.67
494.432	397.69
494.794	374.71
495.155	423.22
495.517	456.42
495.879	464.08
496.24	407.9
496.602	395.14
496.963	395.14
497.325	405.35
497.686	415.56
498.048	341.51
498.409	446.2
498.77	405.35
499.131	441.1
499.492	364.49
499.854	354.28
500.215	390.03
500.576	349.17
500.937	407.9
501.298	400.24
501.658	492.16
502.019	489.61
502.38	361.94
502.741	392.58
503.101	397.69
503.462	397.69
503.823	433.44
504.183	451.31
504.543	384.92
504.904	372.15
505.264	387.48
505.625	435.99
505.985	443.65
506.345	446.2
506.705	415.56
507.065	367.05
507.426	415.56
507.786	405.35
508.146	395.14
508.505	481.95
508.865	336.41
509.225	364.49
509.585	435.99
509.945	435.99
510.304	448.76
510.664	407.9
511.024	405.35
511.383	451.31
511.743	405.35
512.102	433.44
512.462	387.48
512.821	425.78
513.18	402.8
513.539	415.56
513.899	374.71
514.258	418.12
514.617	384.92
514.976	410.46
515.335	487.06
515.694	456.42
516.053	448.76
516.412	410.46
516.771	418.12
517.129	344.07
517.488	390.03
517.847	448.76
518.205	418.12
518.564	397.69
518.922	364.49
519.281	423.22
519.639	377.26
519.998	392.58
520.356	382.37
520.714	374.71
521.073	395.14
521.431	428.33
521.789	405.35
522.147	369.6
522.505	466.63
522.863	390.03
523.221	336.41
523.579	446.2
523.937	494.72
524.295	420.67
524.652	469.18
525.01	458.97
525.368	374.71
525.725	435.99
526.083	428.33
526.44	402.8
526.798	387.48
527.155	430.88
527.513	364.49
527.87	423.22
528.227	374.71
528.584	387.48
528.942	423.22
529.299	400.24
529.656	395.14
530.013	400.24
530.37	367.05
530.727	338.96
531.083	402.8
531.44	364.49
531.797	407.9
532.154	423.22
532.511	418.12
532.867	430.88
533.224	379.81
533.58	397.69
533.937	415.56
534.293	392.58
534.65	367.05
535.006	423.22
535.362	361.94
535.718	410.46
536.075	379.81
536.431	438.54
536.787	374.71
537.143	369.6
537.499	346.62
537.855	407.9
538.211	372.15
538.567	410.46
538.923	418.12
539.278	407.9
539.634	392.58
539.99	364.49
540.345	397.69
540.701	402.8
541.056	367.05
541.412	435.99
541.767	338.96
542.123	397.69
542.478	425.78
542.833	341.51
543.188	395.14
543.544	443.65
543.899	407.9
544.254	430.88
544.609	441.1
544.964	425.78
545.319	333.85
545.674	418.12
546.029	387.48
546.383	402.8
546.738	364.49
547.093	369.6
547.447	397.69
547.802	367.05
548.157	384.92
548.511	466.63
548.866	367.05
549.22	458.97
549.574	407.9
549.929	395.14
550.283	435.99
550.637	367.05
550.991	407.9
551.345	464.08
551.699	430.88
552.053	410.46
552.407	407.9
552.761	448.76
553.115	420.67
553.469	423.22
553.823	377.26
554.176	423.22
554.53	407.9
554.884	453.86
555.237	635.15
555.591	448.76
555.944	410.46
556.298	428.33
556.651	476.84
557.005	428.33
557.358	377.26
557.711	407.9
558.064	387.48
558.417	415.56
558.771	469.18
559.124	484.5
559.477	484.5
559.83	464.08
560.182	420.67
560.535	392.58
560.888	405.35
561.241	390.03
561.594	395.14
561.946	428.33
562.299	461.52
562.651	359.39
563.004	438.54
563.356	476.84
563.709	356.83
564.061	392.58
564.413	407.9
564.766	423.22
565.118	405.35
565.47	418.12
565.822	384.92
566.174	448.76
566.526	405.35
566.878	430.88
567.23	341.51
567.582	369.6
567.934	418.12
568.286	405.35
568.638	464.08
568.989	364.49
569.341	402.8
569.693	407.9
570.044	384.92
570.396	410.46
570.747	415.56
571.098	441.1
571.45	382.37
571.801	349.17
572.152	428.33
572.504	451.31
572.855	413.01
573.206	446.2
573.557	402.8
573.908	377.26
574.259	479.4
574.61	379.81
574.961	338.96
575.311	441.1
575.662	433.44
576.013	392.58
576.364	377.26
576.714	469.18
577.065	443.65
577.415	441.1
577.766	405.35
578.116	346.62
578.467	407.9
578.817	400.24
579.167	458.97
579.518	451.31
579.868	474.29
580.218	407.9
580.568	469.18
580.918	428.33
581.268	387.48
581.618	369.6
581.968	387.48
582.318	418.12
582.668	402.8
583.017	321.09
583.367	407.9
583.717	367.05
584.066	392.58
584.416	400.24
584.765	395.14
585.115	423.22
585.464	387.48
585.814	328.75
586.163	310.87
586.512	441.1
586.862	405.35
587.211	310.87
587.56	377.26
587.909	405.35
588.258	402.8
588.607	430.88
588.956	456.42
589.305	433.44
589.654	405.35
590.002	415.56
590.351	387.48
590.7	420.67
591.048	425.78
591.397	420.67
591.746	415.56
592.094	392.58
592.443	418.12
592.791	476.84
593.139	433.44
593.488	338.96
593.836	364.49
594.184	382.37
594.532	379.81
594.88	405.35
595.228	423.22
595.576	384.92
595.924	405.35
596.272	433.44
596.62	374.71
596.968	446.2
597.316	379.81
597.664	384.92
598.011	400.24
598.359	441.1
598.706	405.35
599.054	392.58
599.402	379.81
599.749	413.01
600.096	392.58
600.444	425.78
600.791	425.78
601.138	413.01
601.485	395.14
601.833	425.78
602.18	384.92
602.527	415.56
602.874	395.14
603.221	369.6
603.568	395.14
603.914	435.99
604.261	435.99
604.608	405.35
604.955	397.69
605.301	456.42
605.648	379.81
605.995	405.35
606.341	415.56
606.688	377.26
607.034	425.78
607.38	392.58
607.727	344.07
608.073	420.67
608.419	372.15
608.765	384.92
609.112	435.99
609.458	384.92
609.804	453.86
610.15	446.2
610.496	395.14
610.842	451.31
611.187	374.71
611.533	405.35
611.879	359.39
612.225	405.35
612.57	407.9
612.916	446.2
613.261	369.6
613.607	418.12
613.952	446.2
614.298	433.44
614.643	395.14
614.989	351.73
615.334	387.48
615.679	390.03
616.024	333.85
616.369	476.84
616.714	471.74
617.059	392.58
617.404	351.73
617.749	384.92
618.094	456.42
618.439	418.12
618.784	395.14
619.129	405.35
619.473	364.49
619.818	395.14
620.163	387.48
620.507	441.1
620.852	430.88
621.196	374.71
621.54	405.35
621.885	377.26
622.229	346.62
622.573	382.37
622.918	430.88
623.262	390.03
623.606	361.94
623.95	438.54
624.294	425.78
624.638	361.94
624.982	402.8
625.326	441.1
625.67	413.01
626.013	379.81
626.357	435.99
626.701	395.14
627.044	336.41
627.388	435.99
627.731	397.69
628.075	390.03
628.418	430.88
628.762	438.54
629.105	410.46
629.448	433.44
629.792	407.9
630.135	443.65
630.478	402.8
630.821	402.8
631.164	405.35
631.507	464.08
631.85	410.46
632.193	435.99
632.536	359.39
632.879	379.81
633.221	364.49
633.564	397.69
633.907	390.03
634.249	433.44
634.592	361.94
634.935	446.2
635.277	428.33
635.619	423.22
635.962	492.16
636.304	384.92
636.646	415.56
636.989	397.69
637.331	425.78
637.673	377.26
638.015	374.71
638.357	461.52
638.699	392.58
639.041	374.71
639.383	438.54
639.725	384.92
640.067	387.48
640.408	384.92
640.75	405.35
641.092	361.94
641.433	415.56
641.775	361.94
642.116	420.67
642.458	410.46
642.799	400.24
643.141	415.56
643.482	349.17
643.823	346.62
644.164	402.8
644.506	484.5
644.847	456.42
645.188	418.12
645.529	418.12
645.87	420.67
646.211	390.03
646.552	364.49
646.893	351.73
647.233	361.94
647.574	387.48
647.915	356.83
648.255	313.43
648.596	379.81
648.937	446.2
649.277	341.51
649.618	377.26
649.958	430.88
650.298	530.46
650.639	369.6
650.979	374.71
651.319	361.94
651.659	372.15
651.999	407.9
652.339	469.18
652.679	400.24
653.019	420.67
653.359	410.46
653.699	433.44
654.039	418.12
654.379	407.9
654.719	418.12
655.058	377.26
655.398	390.03
655.737	525.36
656.077	361.94
656.416	479.4
656.756	464.08
657.095	382.37
657.435	430.88
657.774	471.74
658.113	402.8
658.452	379.81
658.792	328.75
659.131	367.05
659.47	418.12
659.809	369.6
660.148	438.54
660.487	453.86
660.826	443.65
661.164	438.54
661.503	382.37
661.842	474.29
662.181	400.24
662.519	456.42
662.858	413.01
663.196	359.39
663.535	410.46
663.873	423.22
664.212	364.49
664.55	374.71
664.888	372.15
665.226	326.19
665.565	374.71
665.903	517.7
666.241	384.92
666.579	359.39
666.917	392.58
667.255	466.63
667.593	374.71
667.931	379.81
668.268	418.12
668.606	415.56
668.944	395.14
669.282	344.07
669.619	413.01
669.957	402.8
670.294	456.42
670.632	344.07
670.969	420.67
671.307	435.99
671.644	410.46
671.981	400.24
672.318	425.78
672.656	397.69
672.993	415.56
673.33	402.8
673.667	305.77
674.004	359.39
674.341	413.01
674.678	395.14
675.015	451.31
675.351	458.97
675.688	438.54
676.025	446.2
676.362	430.88
676.698	336.41
677.035	453.86
677.371	331.3
677.708	405.35
678.044	402.8
678.38	387.48
678.717	364.49
679.053	369.6
679.389	456.42
679.725	415.56
680.062	413.01
680.398	430.88
680.734	413.01
681.07	446.2
681.406	400.24
681.742	384.92
682.077	315.98
682.413	384.92
682.749	359.39
683.085	407.9
683.42	359.39
683.756	372.15
684.091	395.14
684.427	413.01
684.762	397.69
685.098	387.48
685.433	425.78
685.768	379.81
686.104	374.71
686.439	418.12
686.774	356.83
687.109	395.14
687.444	377.26
687.779	420.67
688.114	372.15
688.449	392.58
688.784	333.85
689.119	351.73
689.454	387.48
689.789	390.03
690.123	379.81
690.458	456.42
690.792	359.39
691.127	356.83
691.461	377.26
691.796	438.54
692.13	379.81
692.465	397.69
692.799	423.22
693.133	392.58
693.467	356.83
693.802	356.83
694.136	290.45
694.47	405.35
694.804	446.2
695.138	413.01
695.472	331.3
695.806	379.81
696.139	379.81
696.473	374.71
696.807	379.81
697.141	400.24
697.474	469.18
697.808	346.62
698.141	364.49
698.475	361.94
698.808	367.05
699.142	351.73
699.475	392.58
699.808	425.78
700.142	369.6
700.475	356.83
700.808	395.14
701.141	379.81
701.474	374.71
701.807	407.9
702.14	356.83
702.473	425.78
702.806	361.94
703.139	369.6
703.472	438.54
703.804	423.22
704.137	415.56
704.47	425.78
704.802	428.33
705.135	402.8
705.467	400.24
705.8	318.53
706.132	354.28
706.464	413.01
706.797	303.21
707.129	367.05
707.461	367.05
707.793	451.31
708.125	364.49
708.457	344.07
708.789	336.41
709.121	407.9
709.453	392.58
709.785	333.85
710.117	441.1
710.449	423.22
710.781	489.61
711.112	384.92
711.444	420.67
711.775	377.26
712.107	390.03
712.438	433.44
712.77	390.03
713.101	341.51
713.433	361.94
713.764	367.05
714.095	400.24
714.426	407.9
714.757	471.74
715.089	471.74
715.42	479.4
715.751	458.97
716.082	372.15
716.412	397.69
716.743	382.37
717.074	356.83
717.405	321.09
717.736	374.71
718.066	387.48
718.397	359.39
718.727	458.97
719.058	364.49
719.388	379.81
719.719	356.83
720.049	464.08
720.38	336.41
720.71	364.49
721.04	392.58
721.37	407.9
721.7	390.03
722.031	392.58
722.361	374.71
722.691	344.07
723.021	361.94
723.35	336.41
723.68	395.14
724.01	420.67
724.34	400.24
724.67	359.39
724.999	443.65
725.329	456.42
725.658	418.12
725.988	397.69
726.317	448.76
726.647	425.78
726.976	435.99
727.306	443.65
727.635	402.8
727.964	397.69
728.293	384.92
728.622	415.56
728.952	369.6
729.281	415.56
729.61	407.9
729.939	338.96
730.267	405.35
730.596	387.48
730.925	405.35
731.254	418.12
731.583	423.22
731.911	400.24
732.24	428.33
732.568	400.24
732.897	433.44
733.225	390.03
733.554	469.18
733.882	448.76
734.21	356.83
734.539	369.6
734.867	392.58
735.195	387.48
735.523	402.8
735.851	372.15
736.179	372.15
736.507	344.07
736.835	387.48
737.163	344.07
737.491	405.35
737.819	333.85
738.147	390.03
738.474	397.69
738.802	349.17
739.13	338.96
739.457	354.28
739.785	367.05
740.112	377.26
740.44	433.44
740.767	433.44
741.094	379.81
741.422	321.09
741.749	361.94
742.076	338.96
742.403	374.71
742.73	356.83
743.057	344.07
743.384	430.88
743.711	413.01
744.038	451.31
744.365	453.86
744.692	395.14
745.018	397.69
745.345	369.6
745.672	367.05
745.998	349.17
746.325	384.92
746.651	387.48
746.978	402.8
747.304	341.51
747.631	443.65
747.957	328.75
748.283	413.01
748.61	395.14
748.936	405.35
749.262	374.71
749.588	413.01
749.914	379.81
750.24	430.88
750.566	430.88
750.892	379.81
751.218	410.46
751.543	315.98
751.869	321.09
752.195	423.22
752.521	377.26
752.846	418.12
753.172	382.37
753.497	359.39
753.823	374.71
754.148	397.69
754.473	453.86
754.799	410.46
755.124	407.9
755.449	476.84
755.774	474.29
756.1	369.6
756.425	382.37
756.75	361.94
757.075	338.96
757.4	512.59
757.724	377.26
758.049	435.99
758.374	425.78
758.699	331.3
759.024	407.9
759.348	397.69
759.673	395.14
759.997	369.6
760.322	354.28
760.646	361.94
760.971	407.9
761.295	349.17
761.619	418.12
761.944	461.52
762.268	364.49
762.592	341.51
762.916	428.33
763.24	402.8
763.564	402.8
763.888	476.84
764.212	517.7
764.536	418.12
764.86	502.38
765.184	502.38
765.508	492.16
765.831	461.52
766.155	744.95
766.478	540.68
766.802	484.5
767.126	576.43
767.449	530.46
767.772	566.21
768.096	535.57
768.419	502.38
768.742	512.59
769.066	617.28
769.389	665.79
769.712	665.79
770.035	678.56
770.358	739.84
770.681	742.39
771.004	704.09
771.327	739.84
771.65	665.79
771.972	778.14
772.295	747.5
772.618	760.27
772.941	803.68
773.263	872.62
773.586	882.83
773.908	887.94
774.231	982.41
774.553	946.66
774.875	1099.87
775.198	1059.01
775.52	1076.89
775.842	1020.71
776.164	1069.23
776.487	1191.79
776.809	1079.44
777.131	1110.08
777.453	1051.35
777.775	1053.91
778.096	1145.83
778.418	1232.64
778.74	1074.33
779.062	1066.67
779.384	1245.41
779.705	1347.55
780.027	1370.53
780.348	1388.4
780.67	1365.42
780.991	1408.83
781.313	1602.88
781.634	1689.7
781.955	1643.74
782.277	1564.58
782.598	1536.5
782.919	1653.95
783.24	1641.18
783.561	1669.27
783.882	1766.3
784.203	1733.11
784.524	1705.02
784.845	1656.5
785.166	1728
785.487	1684.59
785.807	1682.04
786.128	1653.95
786.449	1725.45
786.769	1812.26
787.09	1848.01
787.41	1927.16
787.731	2062.49
788.051	2241.23
788.372	2274.42
788.692	2374
789.012	2437.84
789.332	2271.87
789.653	2356.13
789.973	2478.69
790.293	2463.37
790.613	2253.99
790.933	2253.99
791.253	2356.13
791.573	2289.74
791.893	2210.59
792.212	2218.25
792.532	2274.42
792.852	2167.18
793.171	1996.1
793.491	1988.44
793.811	2006.32
794.13	1937.38
794.45	1878.65
794.769	1779.07
795.088	1789.28
795.408	1763.75
795.727	1789.28
796.046	1842.9
796.365	1842.9
796.684	1761.19
797.004	1825.03
797.323	1939.93
797.642	2437.84
797.96	2478.69
798.279	2483.8
798.598	2422.52
798.917	2312.72
799.236	2279.53
799.554	2075.26
799.873	1970.57
800.192	2072.7
800.51	2182.5
800.829	2133.99
801.147	2016.53
801.466	2052.28
801.784	2021.64
802.102	2003.76
802.421	2144.2
802.739	2233.57
803.057	2287.19
803.375	2149.31
803.693	2113.56
804.011	2282.08
804.329	2442.94
804.647	2271.87
804.965	2131.43
805.283	2057.38
805.601	1942.48
805.918	1893.97
806.236	1753.53
806.554	1743.32
806.871	1840.35
807.189	2057.38
807.507	2024.19
807.824	1906.74
808.141	1860.77
808.459	1756.09
808.776	1590.12
809.093	1459.89
809.411	1365.42
809.728	1408.83
810.045	1434.36
810.362	1472.66
810.679	1439.47
810.996	1380.74
811.313	1378.19
811.63	1452.23
811.947	1352.65
812.264	1357.76
812.58	1316.9
812.897	1219.88
813.214	1230.09
813.53	1258.18
813.847	1367.97
814.163	1362.87
814.48	1309.24
814.796	1380.74
815.113	1235.2
815.429	1168.81
815.745	1242.86
816.061	1230.09
816.378	1173.92
816.694	1092.21
817.01	1166.26
817.326	1176.47
817.642	1140.72
817.958	1041.14
818.274	913.47
818.59	964.54
818.905	898.15
819.221	977.31
819.537	984.97
819.852	956.88
820.168	931.34
820.484	954.33
820.799	1033.48
821.115	926.24
821.43	875.17
821.745	913.47
822.061	890.49
822.376	887.94
822.691	829.21
823.006	890.49
823.322	849.64
823.637	796.02
823.952	724.52
824.267	750.05
824.582	693.88
824.897	872.62
825.211	765.38
825.526	739.84
825.841	762.82
826.156	739.84
826.47	793.46
826.785	714.31
827.1	727.07
827.414	701.54
827.729	655.58
828.043	716.86
828.357	647.92
828.672	591.75
828.986	665.79
829.3	714.31
829.614	673.45
829.929	619.83
830.243	668.35
830.557	586.64
830.871	443.65
831.185	489.61
831.499	527.91
831.812	604.51
832.126	573.87
832.44	594.3
832.754	545.78
833.067	512.59
833.381	607.07
833.695	612.17
834.008	612.17
834.322	558.55
834.635	596.85
834.948	558.55
835.262	515.14
835.575	515.14
835.888	527.91
836.201	461.52
836.515	538.12
836.828	471.74
837.141	451.31
837.454	481.95
837.767	453.86
838.08	502.38
838.392	474.29
838.705	458.97
839.018	464.08
839.331	400.24
839.643	469.18
839.956	507.48
840.269	469.18
840.581	471.74
840.894	443.65
841.206	382.37
841.519	573.87
841.831	438.54
842.143	453.86
842.455	415.56
842.768	425.78
843.08	336.41
843.392	433.44
843.704	390.03
844.016	456.42
844.328	451.31
844.64	458.97
844.952	435.99
845.263	418.12
845.575	359.39
845.887	397.69
846.199	499.82
846.51	405.35
846.822	443.65
847.133	453.86
847.445	382.37
847.756	423.22
848.068	359.39
848.379	435.99
848.69	400.24
849.002	374.71
849.313	400.24
849.624	377.26
849.935	390.03
850.246	433.44
850.557	349.17
850.868	346.62
851.179	407.9
851.49	402.8
851.801	415.56
852.112	433.44
852.422	392.58
852.733	387.48
853.044	435.99
853.354	410.46
853.665	441.1
853.975	410.46
854.286	433.44
854.596	364.49
854.906	377.26
855.217	433.44
855.527	418.12
855.837	349.17
856.147	420.67
856.458	413.01
856.768	451.31
857.078	418.12
857.388	402.8
857.698	341.51
858.007	420.67
858.317	397.69
858.627	407.9
858.937	461.52
859.246	374.71
859.556	479.4
859.866	402.8
860.175	377.26
860.485	361.94
860.794	410.46
861.104	336.41
861.413	390.03
861.722	402.8
862.032	354.28
862.341	356.83
862.65	300.66
862.959	336.41
863.268	390.03
863.577	344.07
863.886	361.94
864.195	395.14
864.504	428.33
864.813	413.01
865.122	400.24
865.43	359.39
865.739	415.56
866.048	407.9
866.356	364.49
866.665	418.12
866.973	377.26
867.282	318.53
867.59	397.69
867.899	425.78
868.207	438.54
868.515	387.48
868.823	346.62
869.132	423.22
869.44	425.78
869.748	387.48
870.056	402.8
870.364	443.65
870.672	410.46
870.98	410.46
871.288	418.12
871.595	446.2
871.903	390.03
872.211	361.94
872.518	392.58
872.826	535.57
873.134	420.67
873.441	356.83
873.749	364.49
874.056	410.46
874.363	446.2
874.671	397.69
874.978	341.51
875.285	333.85
875.592	367.05
875.9	359.39
876.207	377.26
876.514	425.78
876.821	405.35
877.128	433.44
877.435	392.58
877.741	346.62
878.048	400.24
878.355	318.53
878.662	405.35
878.968	369.6
879.275	361.94
879.582	428.33
879.888	407.9
880.195	410.46
880.501	443.65
880.807	374.71
881.114	407.9
881.42	367.05
881.726	387.48
882.032	374.71
882.339	344.07
882.645	418.12
882.951	387.48
883.257	387.48
883.563	369.6
883.869	451.31
884.174	402.8
884.48	397.69
884.786	356.83
885.092	356.83
885.397	346.62
885.703	405.35
886.009	377.26
886.314	387.48
886.62	372.15
886.925	387.48
887.231	451.31
887.536	438.54
887.841	351.73
888.146	451.31
888.452	346.62
888.757	438.54
889.062	407.9
889.367	384.92
889.672	438.54
889.977	397.69
890.282	402.8
890.587	443.65
890.892	369.6
891.196	423.22
891.501	423.22
891.806	410.46
892.11	374.71
892.415	448.76
892.72	354.28
893.024	374.71
893.328	443.65
893.633	435.99
893.937	351.73
894.242	400.24
894.546	338.96
894.85	456.42
895.154	435.99
895.458	359.39
895.762	402.8
896.066	356.83
896.37	384.92
896.674	395.14
896.978	361.94
897.282	369.6
897.586	382.37
897.89	374.71
898.193	395.14
898.497	344.07
898.801	392.58
899.104	430.88
899.408	349.17
899.711	435.99
900.014	390.03
900.318	395.14
900.621	402.8
900.924	438.54
901.228	400.24
901.531	361.94
901.834	410.46
902.137	435.99
902.44	351.73
902.743	438.54
903.046	451.31
903.349	402.8
903.652	390.03
903.955	400.24
904.257	331.3
904.56	361.94
904.863	451.31
905.165	413.01
905.468	453.86
905.77	420.67
906.073	461.52
906.375	413.01
906.678	425.78
906.98	430.88
907.282	351.73
907.584	351.73
907.887	390.03
908.189	333.85
908.491	372.15
908.793	410.46
909.095	415.56
909.397	361.94
909.699	369.6
910.001	333.85
910.302	392.58
910.604	395.14
910.906	364.49
911.208	377.26
911.509	456.42
911.811	456.42
912.112	364.49
912.414	354.28
912.715	428.33
913.017	405.35
913.318	369.6
913.619	425.78
913.92	354.28
914.222	372.15
914.523	364.49
914.824	433.44
915.125	364.49
915.426	384.92
915.727	395.14
916.028	354.28
916.329	364.49
916.63	435.99
916.93	384.92
917.231	359.39
917.532	415.56
917.832	369.6
918.133	425.78
918.434	395.14
918.734	387.48
919.034	364.49
919.335	428.33
919.635	435.99
919.935	379.81
920.236	346.62
920.536	364.49
920.836	428.33
921.136	395.14
921.436	504.93
921.736	413.01
922.036	364.49
922.336	402.8
922.636	384.92
922.936	344.07
923.236	415.56
923.535	415.56
923.835	492.16
924.135	354.28
924.434	420.67
924.734	379.81
925.033	374.71
925.333	372.15
925.632	384.92
925.932	418.12
926.231	418.12
926.53	359.39
926.83	425.78
927.129	384.92
927.428	382.37
927.727	367.05
928.026	372.15
928.325	410.46
928.624	435.99
928.923	415.56
929.222	341.51
929.52	374.71
929.819	413.01
930.118	415.56
930.417	420.67
930.715	364.49
931.014	369.6
931.312	415.56
931.611	384.92
931.909	397.69
932.207	410.46
932.506	315.98
932.804	390.03
933.102	400.24
933.401	367.05
933.699	448.76
933.997	367.05
934.295	315.98
934.593	382.37
934.891	367.05
935.189	367.05
935.487	331.3
935.784	336.41
936.082	364.49
936.38	413.01
936.677	423.22
936.975	420.67
937.273	402.8
937.57	430.88
937.868	359.39
938.165	466.63
938.463	372.15
938.76	390.03
939.057	326.19
939.354	402.8
939.652	456.42
939.949	374.71
940.246	331.3
940.543	423.22
940.84	405.35
941.137	349.17
941.434	364.49
941.731	364.49
942.028	374.71
942.324	384.92
942.621	336.41
942.918	456.42
943.214	349.17
943.511	390.03
943.807	456.42
944.104	387.48
944.4	374.71
944.697	392.58
944.993	315.98
945.29	384.92
945.586	336.41
945.882	354.28
946.178	390.03
946.474	356.83
946.77	405.35
947.066	402.8
947.362	405.35
947.658	387.48
947.954	433.44
948.25	364.49
948.546	369.6
948.842	313.43
949.137	326.19
949.433	384.92
949.729	328.75
950.024	372.15
950.32	395.14
950.615	443.65
950.91	369.6
951.206	402.8
951.501	405.35
951.796	405.35
952.092	349.17
952.387	397.69
952.682	420.67
952.977	425.78
953.272	364.49
953.567	458.97
953.862	458.97
954.157	377.26
954.452	293
954.747	364.49
955.041	402.8
955.336	392.58
955.631	367.05
955.925	369.6
956.22	318.53
956.514	410.46
956.809	354.28
957.103	387.48
957.398	377.26
957.692	423.22
957.986	372.15
958.281	390.03
958.575	377.26
958.869	397.69
959.163	349.17
959.457	318.53
959.751	428.33
960.045	413.01
960.339	367.05
960.633	387.48
960.927	418.12
961.221	387.48
961.514	369.6
961.808	382.37
962.102	397.69
962.395	458.97
962.689	387.48
962.982	351.73
963.276	390.03
963.569	372.15
963.862	382.37
964.156	402.8
964.449	410.46
964.742	351.73
965.035	359.39
965.328	390.03
965.622	415.56
965.915	413.01
966.208	354.28
966.5	479.4
966.793	423.22
967.086	395.14
967.379	379.81
967.672	364.49
967.964	392.58
968.257	359.39
968.55	425.78
968.842	402.8
969.135	430.88
969.427	359.39
969.72	382.37
970.012	349.17
970.304	456.42
970.597	397.69
970.889	428.33
971.181	354.28
971.473	428.33
971.765	415.56
972.057	382.37
972.349	387.48
972.641	379.81
972.933	397.69
973.225	384.92
973.517	405.35
973.809	402.8
974.1	402.8
974.392	413.01
974.684	415.56
974.975	333.85
975.267	425.78
975.558	405.35
975.85	359.39
976.141	384.92
976.432	415.56
976.724	410.46
977.015	369.6
977.306	413.01
977.597	395.14
977.888	323.64
978.179	356.83
978.47	351.73
978.761	425.78
979.052	451.31
979.343	369.6
979.634	387.48
979.925	379.81
980.215	420.67
980.506	392.58
980.797	321.09
981.087	382.37
981.378	341.51
981.668	361.94
981.959	384.92
982.249	390.03
982.54	415.56
982.83	395.14
983.12	395.14
983.41	359.39
983.701	341.51
983.991	359.39
984.281	420.67
984.571	338.96
984.861	310.87
985.151	364.49
985.441	392.58
985.73	377.26
986.02	336.41
986.31	364.49
986.6	415.56
986.889	349.17
987.179	387.48
987.469	418.12
987.758	425.78
988.048	364.49
988.337	351.73
988.626	407.9
988.916	372.15
989.205	405.35
989.494	369.6
989.783	369.6
990.073	382.37
990.362	379.81
990.651	354.28
990.94	377.26
991.229	326.19
991.518	430.88
991.806	336.41
992.095	349.17
992.384	315.98
992.673	361.94
992.961	377.26
993.25	361.94
993.539	367.05
993.827	387.48
994.116	410.46
994.404	387.48
994.692	390.03
994.981	377.26
995.269	341.51
995.557	392.58
995.846	372.15
996.134	428.33
996.422	341.51
996.71	395.14
996.998	400.24
997.286	441.1
997.574	372.15
997.862	390.03
998.15	344.07
998.437	361.94
998.725	433.44
999.013	420.67
999.3	382.37
999.588	359.39
999.876	430.88
1000.163	374.71
1000.45	377.26
1000.738	395.14
1001.025	341.51
1001.313	402.8
1001.6	379.81
1001.887	418.12
1002.174	400.24
1002.461	338.96
1002.748	435.99
1003.036	392.58
1003.322	413.01
1003.609	469.18
1003.896	433.44
1004.183	435.99
1004.47	420.67
1004.757	384.92
1005.043	377.26
1005.33	349.17
1005.617	364.49
1005.903	397.69
1006.19	323.64
1006.476	392.58
1006.763	351.73
1007.049	369.6
1007.335	351.73
1007.622	369.6
1007.908	420.67
1008.194	420.67
1008.48	387.48
1008.766	384.92
1009.053	356.83
1009.339	367.05
1009.625	377.26
1009.91	367.05
1010.196	384.92
1010.482	372.15
1010.768	382.37
1011.054	402.8
1011.339	377.26
1011.625	395.14
1011.911	405.35
1012.196	425.78
1012.482	379.81
1012.767	361.94
1013.052	400.24
1013.338	359.39
1013.623	384.92
1013.908	367.05
1014.194	364.49
1014.479	346.62
1014.764	382.37
1015.049	461.52
1015.334	372.15
1015.619	354.28
1015.904	407.9
1016.189	364.49
1016.474	367.05
1016.758	379.81
1017.043	390.03
1017.328	361.94
1017.613	420.67
1017.897	351.73
1018.182	402.8
1018.466	367.05
1018.751	349.17
1019.035	341.51
1019.32	390.03
1019.604	405.35
1019.888	382.37
1020.172	382.37
1020.457	382.37
