Data from 2025-12-03_xpw_interference_micrometer_634_reference_FLMS141361__11__461.txt Node

Date: Wed Dec 03 15:52:20 MST 2025
User: james
Spectrometer: FLMS14136
Trigger mode: 0
Integration Time (sec): 1.000000E-1
Scans to average: 1
Electric dark correction enabled: true
Nonlinearity correction enabled: false
Boxcar width: 0
XAxis mode: Wavelengths
Number of Pixels in Spectrum: 2048
>>>>>Begin Spectral Data<<<<<
339.315	-57.93
339.697	-57.93
340.079	-57.93
340.461	-129.42
340.843	-114.1
341.225	-129.42
341.607	-60.48
341.989	-106.44
342.371	-124.32
342.752	-111.55
343.134	-114.1
343.516	-27.29
343.897	-55.38
344.279	-4.31
344.661	79.95
345.042	82.51
345.423	69.74
345.805	87.61
346.186	108.04
346.567	128.47
346.949	176.98
347.33	154
347.711	123.36
348.092	169.32
348.473	138.68
348.854	187.19
349.235	258.69
349.616	294.44
349.997	286.78
350.378	296.99
350.758	263.8
351.139	309.76
351.52	348.06
351.9	335.29
352.281	365.93
352.661	317.42
353.042	304.65
353.422	294.44
353.803	399.12
354.183	388.91
354.563	376.14
354.943	409.34
355.324	424.66
355.704	335.29
356.084	396.57
356.464	434.87
356.844	345.5
357.224	358.27
357.603	302.1
357.983	378.7
358.363	419.55
358.743	460.41
359.122	371.04
359.502	378.7
359.882	401.68
360.261	330.18
360.641	355.72
361.02	258.69
361.399	381.25
361.779	319.97
362.158	360.82
362.537	404.23
362.916	381.25
363.296	360.82
363.675	325.08
364.054	381.25
364.433	404.23
364.812	299.54
365.19	350.61
365.569	353.16
365.948	319.97
366.327	302.1
366.705	360.82
367.084	304.65
367.463	286.78
367.841	319.97
368.22	286.78
368.598	350.61
368.977	322.52
369.355	289.33
369.733	330.18
370.111	325.08
370.49	360.82
370.868	332.74
371.246	371.04
371.624	350.61
372.002	358.27
372.38	319.97
372.758	322.52
373.136	335.29
373.513	330.18
373.891	350.61
374.269	350.61
374.646	281.67
375.024	322.52
375.402	355.72
375.779	284.22
376.157	330.18
376.534	291.88
376.911	317.42
377.289	353.16
377.666	337.84
378.043	289.33
378.42	368.48
378.797	360.82
379.175	342.95
379.552	396.57
379.929	391.46
380.305	325.08
380.682	289.33
381.059	342.95
381.436	322.52
381.813	391.46
382.189	291.88
382.566	325.08
382.943	404.23
383.319	394.02
383.696	365.93
384.072	337.84
384.448	353.16
384.825	307.2
385.201	271.46
385.577	373.59
385.953	325.08
386.329	337.84
386.706	376.14
387.082	378.7
387.458	353.16
387.834	363.38
388.209	360.82
388.585	317.42
388.961	294.44
389.337	383.8
389.713	388.91
390.088	340.4
390.464	319.97
390.839	337.84
391.215	312.31
391.59	360.82
391.966	350.61
392.341	325.08
392.716	391.46
393.092	312.31
393.467	243.37
393.842	330.18
394.217	332.74
394.592	325.08
394.967	327.63
395.342	332.74
395.717	376.14
396.092	409.34
396.467	399.12
396.841	355.72
397.216	307.2
397.591	363.38
397.965	330.18
398.34	355.72
398.714	291.88
399.089	360.82
399.463	353.16
399.838	360.82
400.212	317.42
400.586	378.7
400.961	381.25
401.335	363.38
401.709	391.46
402.083	360.82
402.457	360.82
402.831	319.97
403.205	399.12
403.579	391.46
403.953	360.82
404.326	330.18
404.7	376.14
405.074	411.89
405.447	371.04
405.821	345.5
406.195	386.36
406.568	404.23
406.942	452.75
407.315	360.82
407.688	368.48
408.062	414.45
408.435	368.48
408.808	376.14
409.181	411.89
409.554	314.86
409.927	358.27
410.3	391.46
410.673	373.59
411.046	381.25
411.419	419.55
411.792	391.46
412.165	381.25
412.537	429.77
412.91	365.93
413.283	330.18
413.655	319.97
414.028	381.25
414.4	355.72
414.773	404.23
415.145	376.14
415.517	345.5
415.889	376.14
416.262	353.16
416.634	358.27
417.006	404.23
417.378	383.8
417.75	404.23
418.122	383.8
418.494	340.4
418.866	399.12
419.238	327.63
419.609	419.55
419.981	394.02
420.353	371.04
420.725	360.82
421.096	314.86
421.468	381.25
421.839	429.77
422.211	365.93
422.582	325.08
422.953	394.02
423.325	396.57
423.696	340.4
424.067	399.12
424.438	378.7
424.809	455.3
425.18	327.63
425.551	350.61
425.922	427.21
426.293	360.82
426.664	353.16
427.035	427.21
427.406	376.14
427.776	439.98
428.147	376.14
428.518	399.12
428.888	368.48
429.259	378.7
429.629	350.61
429.999	317.42
430.37	360.82
430.74	304.65
431.11	396.57
431.481	401.68
431.851	386.36
432.221	427.21
432.591	394.02
432.961	394.02
433.331	411.89
433.701	409.34
434.071	429.77
434.441	450.19
434.81	322.52
435.18	350.61
435.55	376.14
435.919	365.93
436.289	381.25
436.658	363.38
437.028	401.68
437.397	302.1
437.767	409.34
438.136	360.82
438.505	368.48
438.875	335.29
439.244	342.95
439.613	432.32
439.982	371.04
440.351	432.32
440.72	394.02
441.089	419.55
441.458	437.43
441.827	427.21
442.196	396.57
442.564	450.19
442.933	417
443.302	429.77
443.67	383.8
444.039	399.12
444.407	401.68
444.776	399.12
445.144	355.72
445.513	383.8
445.881	396.57
446.249	340.4
446.617	376.14
446.986	302.1
447.354	404.23
447.722	368.48
448.09	386.36
448.458	383.8
448.826	455.3
449.194	419.55
449.561	386.36
449.929	337.84
450.297	363.38
450.665	383.8
451.032	381.25
451.4	332.74
451.767	355.72
452.135	424.66
452.502	399.12
452.87	437.43
453.237	404.23
453.604	394.02
453.971	383.8
454.339	386.36
454.706	388.91
455.073	399.12
455.44	404.23
455.807	342.95
456.174	399.12
456.541	391.46
456.908	406.79
457.274	424.66
457.641	460.41
458.008	417
458.374	365.93
458.741	378.7
459.108	368.48
459.474	319.97
459.841	378.7
460.207	332.74
460.573	386.36
460.94	391.46
461.306	452.75
461.672	396.57
462.038	419.55
462.404	378.7
462.771	457.85
463.137	406.79
463.503	378.7
463.868	396.57
464.234	371.04
464.6	312.31
464.966	419.55
465.332	396.57
465.697	358.27
466.063	391.46
466.429	419.55
466.794	360.82
467.16	353.16
467.525	376.14
467.89	411.89
468.256	427.21
468.621	437.43
468.986	409.34
469.351	434.87
469.717	391.46
470.082	378.7
470.447	399.12
470.812	381.25
471.177	424.66
471.542	493.6
471.906	371.04
472.271	365.93
472.636	396.57
473.001	332.74
473.365	427.21
473.73	355.72
474.094	409.34
474.459	404.23
474.823	337.84
475.188	394.02
475.552	434.87
475.917	411.89
476.281	399.12
476.645	371.04
477.009	419.55
477.373	358.27
477.737	365.93
478.101	330.18
478.465	406.79
478.829	462.96
479.193	355.72
479.557	399.12
479.921	432.32
480.284	368.48
480.648	335.29
481.012	373.59
481.375	432.32
481.739	340.4
482.102	396.57
482.466	399.12
482.829	394.02
483.193	427.21
483.556	462.96
483.919	358.27
484.282	396.57
484.645	363.38
485.009	388.91
485.372	340.4
485.735	365.93
486.098	368.48
486.46	414.45
486.823	427.21
487.186	406.79
487.549	383.8
487.912	401.68
488.274	373.59
488.637	394.02
488.999	353.16
489.362	378.7
489.724	457.85
490.087	409.34
490.449	409.34
490.811	394.02
491.174	381.25
491.536	399.12
491.898	427.21
492.26	309.76
492.622	383.8
492.984	391.46
493.346	417
493.708	317.42
494.07	350.61
494.432	322.52
494.794	350.61
495.155	404.23
495.517	432.32
495.879	406.79
496.24	368.48
496.602	391.46
496.963	475.73
497.325	406.79
497.686	399.12
498.048	396.57
498.409	432.32
498.77	388.91
499.131	388.91
499.492	422.11
499.854	358.27
500.215	391.46
500.576	437.43
500.937	376.14
501.298	325.08
501.658	365.93
502.019	319.97
502.38	399.12
502.741	419.55
503.101	383.8
503.462	424.66
503.823	365.93
504.183	325.08
504.543	381.25
504.904	399.12
505.264	373.59
505.625	388.91
505.985	419.55
506.345	396.57
506.705	381.25
507.065	373.59
507.426	360.82
507.786	350.61
508.146	327.63
508.505	345.5
508.865	394.02
509.225	427.21
509.585	462.96
509.945	427.21
510.304	404.23
510.664	353.16
511.024	383.8
511.383	427.21
511.743	404.23
512.102	399.12
512.462	373.59
512.821	363.38
513.18	337.84
513.539	388.91
513.899	391.46
514.258	399.12
514.617	409.34
514.976	365.93
515.335	365.93
515.694	401.68
516.053	365.93
516.412	417
516.771	332.74
517.129	312.31
517.488	376.14
517.847	399.12
518.205	388.91
518.564	373.59
518.922	368.48
519.281	409.34
519.639	381.25
519.998	355.72
520.356	388.91
520.714	401.68
521.073	391.46
521.431	376.14
521.789	342.95
522.147	422.11
522.505	411.89
522.863	396.57
523.221	353.16
523.579	388.91
523.937	371.04
524.295	442.53
524.652	414.45
525.01	327.63
525.368	401.68
525.725	386.36
526.083	376.14
526.44	429.77
526.798	473.17
527.155	473.17
527.513	394.02
527.87	363.38
528.227	391.46
528.584	330.18
528.942	335.29
529.299	363.38
529.656	383.8
530.013	360.82
530.37	365.93
530.727	337.84
531.083	404.23
531.44	388.91
531.797	365.93
532.154	342.95
532.511	437.43
532.867	399.12
533.224	401.68
533.58	388.91
533.937	434.87
534.293	399.12
534.65	345.5
535.006	396.57
535.362	396.57
535.718	414.45
536.075	391.46
536.431	332.74
536.787	399.12
537.143	394.02
537.499	414.45
537.855	427.21
538.211	409.34
538.567	365.93
538.923	394.02
539.278	342.95
539.634	414.45
539.99	360.82
540.345	424.66
540.701	383.8
541.056	342.95
541.412	394.02
541.767	406.79
542.123	368.48
542.478	434.87
542.833	388.91
543.188	414.45
543.544	409.34
543.899	406.79
544.254	358.27
544.609	406.79
544.964	363.38
545.319	411.89
545.674	404.23
546.029	365.93
546.383	388.91
546.738	388.91
547.093	355.72
547.447	419.55
547.802	322.52
548.157	330.18
548.511	401.68
548.866	394.02
549.22	442.53
549.574	368.48
549.929	406.79
550.283	411.89
550.637	394.02
550.991	376.14
551.345	396.57
551.699	414.45
552.053	406.79
552.407	404.23
552.761	419.55
553.115	409.34
553.469	409.34
553.823	348.06
554.176	399.12
554.53	376.14
554.884	371.04
555.237	626.38
555.591	386.36
555.944	386.36
556.298	378.7
556.651	411.89
557.005	401.68
557.358	419.55
557.711	378.7
558.064	330.18
558.417	365.93
558.771	473.17
559.124	468.07
559.477	360.82
559.83	401.68
560.182	409.34
560.535	365.93
560.888	404.23
561.241	427.21
561.594	401.68
561.946	340.4
562.299	404.23
562.651	337.84
563.004	358.27
563.356	432.32
563.709	447.64
564.061	368.48
564.413	325.08
564.766	335.29
565.118	360.82
565.47	388.91
565.822	381.25
566.174	373.59
566.526	388.91
566.878	406.79
567.23	325.08
567.582	401.68
567.934	322.52
568.286	355.72
568.638	414.45
568.989	434.87
569.341	376.14
569.693	383.8
570.044	378.7
570.396	409.34
570.747	470.62
571.098	332.74
571.45	394.02
571.801	350.61
572.152	406.79
572.504	350.61
572.855	286.78
573.206	363.38
573.557	376.14
573.908	394.02
574.259	391.46
574.61	365.93
574.961	378.7
575.311	388.91
575.662	358.27
576.013	411.89
576.364	383.8
576.714	381.25
577.065	391.46
577.415	432.32
577.766	396.57
578.116	465.51
578.467	365.93
578.817	365.93
579.167	355.72
579.518	368.48
579.868	419.55
580.218	363.38
580.568	358.27
580.918	399.12
581.268	427.21
581.618	355.72
581.968	455.3
582.318	401.68
582.668	396.57
583.017	409.34
583.367	424.66
583.717	337.84
584.066	417
584.416	419.55
584.765	401.68
585.115	363.38
585.464	376.14
585.814	312.31
586.163	417
586.512	350.61
586.862	358.27
587.211	414.45
587.56	383.8
587.909	450.19
588.258	371.04
588.607	401.68
588.956	388.91
589.305	383.8
589.654	376.14
590.002	417
590.351	411.89
590.7	406.79
591.048	394.02
591.397	373.59
591.746	445.09
592.094	406.79
592.443	429.77
592.791	429.77
593.139	414.45
593.488	404.23
593.836	378.7
594.184	365.93
594.532	386.36
594.88	429.77
595.228	424.66
595.576	350.61
595.924	342.95
596.272	414.45
596.62	340.4
596.968	404.23
597.316	355.72
597.664	424.66
598.011	363.38
598.359	330.18
598.706	388.91
599.054	394.02
599.402	460.41
599.749	419.55
600.096	406.79
600.444	396.57
600.791	337.84
601.138	345.5
601.485	381.25
601.833	368.48
602.18	419.55
602.527	381.25
602.874	368.48
603.221	396.57
603.568	355.72
603.914	401.68
604.261	411.89
604.608	371.04
604.955	419.55
605.301	434.87
605.648	391.46
605.995	335.29
606.341	345.5
606.688	432.32
607.034	419.55
607.38	391.46
607.727	399.12
608.073	394.02
608.419	391.46
608.765	381.25
609.112	396.57
609.458	360.82
609.804	383.8
610.15	391.46
610.496	319.97
610.842	312.31
611.187	365.93
611.533	388.91
611.879	355.72
612.225	365.93
612.57	327.63
612.916	373.59
613.261	401.68
613.607	363.38
613.952	409.34
614.298	462.96
614.643	363.38
614.989	406.79
615.334	337.84
615.679	365.93
616.024	381.25
616.369	439.98
616.714	378.7
617.059	442.53
617.404	394.02
617.749	427.21
618.094	381.25
618.439	371.04
618.784	417
619.129	429.77
619.473	409.34
619.818	411.89
620.163	350.61
620.507	317.42
620.852	376.14
621.196	325.08
621.54	457.85
621.885	422.11
622.229	381.25
622.573	434.87
622.918	429.77
623.262	388.91
623.606	386.36
623.95	340.4
624.294	322.52
624.638	371.04
624.982	396.57
625.326	332.74
625.67	340.4
626.013	363.38
626.357	350.61
626.701	419.55
627.044	450.19
627.388	355.72
627.731	348.06
628.075	391.46
628.418	345.5
628.762	365.93
629.105	373.59
629.448	365.93
629.792	355.72
630.135	358.27
630.478	368.48
630.821	327.63
631.164	378.7
631.507	409.34
631.85	386.36
632.193	396.57
632.536	365.93
632.879	381.25
633.221	391.46
633.564	378.7
633.907	404.23
634.249	368.48
634.592	335.29
634.935	365.93
635.277	340.4
635.619	337.84
635.962	422.11
636.304	342.95
636.646	383.8
636.989	381.25
637.331	401.68
637.673	386.36
638.015	383.8
638.357	291.88
638.699	330.18
639.041	381.25
639.383	414.45
639.725	394.02
640.067	322.52
640.408	427.21
640.75	447.64
641.092	383.8
641.433	383.8
641.775	348.06
642.116	404.23
642.458	399.12
642.799	358.27
643.141	302.1
643.482	304.65
643.823	424.66
644.164	386.36
644.506	473.17
644.847	332.74
645.188	327.63
645.529	373.59
645.87	322.52
646.211	417
646.552	383.8
646.893	350.61
647.233	353.16
647.574	424.66
647.915	419.55
648.255	378.7
648.596	381.25
648.937	409.34
649.277	394.02
649.618	330.18
649.958	355.72
650.298	360.82
650.639	442.53
650.979	291.88
651.319	417
651.659	348.06
651.999	376.14
652.339	381.25
652.679	445.09
653.019	414.45
653.359	350.61
653.699	373.59
654.039	381.25
654.379	342.95
654.719	348.06
655.058	462.96
655.398	378.7
655.737	396.57
656.077	363.38
656.416	401.68
656.756	386.36
657.095	319.97
657.435	383.8
657.774	383.8
658.113	411.89
658.452	378.7
658.792	376.14
659.131	388.91
659.47	368.48
659.809	365.93
660.148	406.79
660.487	388.91
660.826	319.97
661.164	432.32
661.503	424.66
661.842	332.74
662.181	345.5
662.519	422.11
662.858	406.79
663.196	353.16
663.535	332.74
663.873	388.91
664.212	350.61
664.55	363.38
664.888	424.66
665.226	348.06
665.565	371.04
665.903	611.06
666.241	388.91
666.579	399.12
666.917	401.68
667.255	309.76
667.593	434.87
667.931	411.89
668.268	365.93
668.606	345.5
668.944	365.93
669.282	302.1
669.619	437.43
669.957	383.8
670.294	378.7
670.632	388.91
670.969	353.16
671.307	394.02
671.644	353.16
671.981	422.11
672.318	365.93
672.656	450.19
672.993	363.38
673.33	358.27
673.667	381.25
674.004	358.27
674.341	345.5
674.678	450.19
675.015	406.79
675.351	391.46
675.688	427.21
676.025	388.91
676.362	355.72
676.698	378.7
677.035	340.4
677.371	368.48
677.708	417
678.044	312.31
678.38	401.68
678.717	396.57
679.053	396.57
679.389	363.38
679.725	429.77
680.062	468.07
680.398	383.8
680.734	363.38
681.07	358.27
681.406	365.93
681.742	394.02
682.077	368.48
682.413	404.23
682.749	335.29
683.085	394.02
683.42	373.59
683.756	386.36
684.091	404.23
684.427	327.63
684.762	363.38
685.098	373.59
685.433	424.66
685.768	419.55
686.104	371.04
686.439	337.84
686.774	373.59
687.109	363.38
687.444	381.25
687.779	340.4
688.114	396.57
688.449	394.02
688.784	368.48
689.119	360.82
689.454	401.68
689.789	358.27
690.123	378.7
690.458	355.72
690.792	350.61
691.127	381.25
691.461	391.46
691.796	355.72
692.13	327.63
692.465	381.25
692.799	396.57
693.133	376.14
693.467	302.1
693.802	406.79
694.136	365.93
694.47	383.8
694.804	378.7
695.138	414.45
695.472	348.06
695.806	383.8
696.139	307.2
696.473	447.64
696.807	465.51
697.141	371.04
697.474	368.48
697.808	437.43
698.141	368.48
698.475	378.7
698.808	376.14
699.142	376.14
699.475	378.7
699.808	391.46
700.142	401.68
700.475	363.38
700.808	394.02
701.141	473.17
701.474	350.61
701.807	391.46
702.14	373.59
702.473	409.34
702.806	345.5
703.139	314.86
703.472	406.79
703.804	342.95
704.137	442.53
704.47	358.27
704.802	383.8
705.135	388.91
705.467	327.63
705.8	360.82
706.132	330.18
706.464	434.87
706.797	371.04
707.129	365.93
707.461	376.14
707.793	396.57
708.125	373.59
708.457	381.25
708.789	394.02
709.121	404.23
709.453	434.87
709.785	388.91
710.117	376.14
710.449	327.63
710.781	383.8
711.112	368.48
711.444	396.57
711.775	342.95
712.107	411.89
712.438	399.12
712.77	381.25
713.101	404.23
713.433	429.77
713.764	345.5
714.095	371.04
714.426	427.21
714.757	450.19
715.089	345.5
715.42	399.12
715.751	417
716.082	378.7
716.412	391.46
716.743	394.02
717.074	365.93
717.405	368.48
717.736	396.57
718.066	396.57
718.397	332.74
718.727	342.95
719.058	381.25
719.388	388.91
719.719	455.3
720.049	363.38
720.38	353.16
720.71	340.4
721.04	386.36
721.37	394.02
721.7	394.02
722.031	363.38
722.361	386.36
722.691	363.38
723.021	363.38
723.35	394.02
723.68	399.12
724.01	368.48
724.34	434.87
724.67	419.55
724.999	337.84
725.329	371.04
725.658	355.72
725.988	307.2
726.317	365.93
726.647	335.29
726.976	401.68
727.306	383.8
727.635	355.72
727.964	404.23
728.293	388.91
728.622	330.18
728.952	342.95
729.281	419.55
729.61	337.84
729.939	381.25
730.267	350.61
730.596	409.34
730.925	325.08
731.254	355.72
731.583	432.32
731.911	360.82
732.24	371.04
732.568	404.23
732.897	322.52
733.225	401.68
733.554	396.57
733.882	340.4
734.21	388.91
734.539	378.7
734.867	391.46
735.195	394.02
735.523	437.43
735.851	417
736.179	381.25
736.507	381.25
736.835	439.98
737.163	404.23
737.491	368.48
737.819	360.82
738.147	376.14
738.474	365.93
738.802	439.98
739.13	345.5
739.457	345.5
739.785	404.23
740.112	363.38
740.44	371.04
740.767	439.98
741.094	363.38
741.422	368.48
741.749	383.8
742.076	371.04
742.403	386.36
742.73	353.16
743.057	365.93
743.384	342.95
743.711	345.5
744.038	353.16
744.365	383.8
744.692	429.77
745.018	419.55
745.345	470.62
745.672	414.45
745.998	388.91
746.325	350.61
746.651	350.61
746.978	396.57
747.304	439.98
747.631	345.5
747.957	406.79
748.283	411.89
748.61	378.7
748.936	386.36
749.262	373.59
749.588	342.95
749.914	340.4
750.24	406.79
750.566	388.91
750.892	399.12
751.218	358.27
751.543	371.04
751.869	342.95
752.195	406.79
752.521	396.57
752.846	345.5
753.172	381.25
753.497	399.12
753.823	373.59
754.148	424.66
754.473	378.7
754.799	314.86
755.124	340.4
755.449	399.12
755.774	434.87
756.1	360.82
756.425	322.52
756.75	335.29
757.075	376.14
757.4	552.33
757.724	376.14
758.049	419.55
758.374	414.45
758.699	399.12
759.024	406.79
759.348	373.59
759.673	376.14
759.997	358.27
760.322	355.72
760.646	373.59
760.971	419.55
761.295	383.8
761.619	401.68
761.944	388.91
762.268	383.8
762.592	452.75
762.916	419.55
763.24	411.89
763.564	417
763.888	439.98
764.212	457.85
764.536	478.28
764.86	432.32
765.184	414.45
765.508	468.07
765.831	404.23
766.155	710.64
766.478	462.96
766.802	516.58
767.126	404.23
767.449	439.98
767.772	521.69
768.096	524.24
768.419	511.47
768.742	537.01
769.066	636.59
769.389	626.38
769.712	565.09
770.035	616.16
770.358	618.72
770.681	692.76
771.004	667.23
771.327	713.19
771.65	789.79
771.972	736.17
772.295	695.32
772.618	687.66
772.941	720.85
773.263	738.72
773.586	845.97
773.908	891.93
774.231	840.86
774.553	899.59
774.875	1101.3
775.198	1068.11
775.52	1014.49
775.842	1009.38
776.164	973.63
776.487	991.51
776.809	986.4
777.131	1024.7
777.453	1027.26
777.775	988.96
778.096	1075.77
778.418	1144.71
778.74	1091.09
779.062	1134.5
779.384	1160.03
779.705	1320.89
780.027	1326
780.348	1389.84
780.67	1366.86
780.991	1486.86
781.313	1535.38
781.634	1578.79
781.955	1530.27
782.277	1537.93
782.598	1583.89
782.919	1494.52
783.24	1578.79
783.561	1573.68
783.882	1512.4
784.203	1596.66
784.524	1581.34
784.845	1583.89
785.166	1576.23
785.487	1673.26
785.807	1739.65
786.128	1655.39
786.449	1703.9
786.769	1744.76
787.09	1905.62
787.41	1969.45
787.731	2102.23
788.051	2237.56
788.372	2268.2
788.692	2217.13
789.012	2329.48
789.332	2099.67
789.653	2296.28
789.973	2429.06
790.293	2403.53
790.613	2158.4
790.933	2125.21
791.253	2212.02
791.573	2181.38
791.893	2127.76
792.212	2158.4
792.532	2148.19
792.852	2084.35
793.171	2033.29
793.491	1954.13
793.811	2061.37
794.13	1877.53
794.45	1821.36
794.769	1729.43
795.088	1693.69
795.408	1721.77
795.727	1874.98
796.046	1760.08
796.365	1754.97
796.684	1752.42
797.004	1701.35
797.323	1885.19
797.642	2326.93
797.96	2426.51
798.279	2457.15
798.598	2273.3
798.917	2268.2
799.236	2212.02
799.554	1956.69
799.873	1972.01
800.192	1961.79
800.51	2056.27
800.829	2017.97
801.147	2038.39
801.466	1811.14
801.784	1857.1
802.102	1831.57
802.421	1987.33
802.739	2160.96
803.057	2153.3
803.375	1920.94
803.693	1974.56
804.011	2222.24
804.329	2298.84
804.647	2247.77
804.965	2086.91
805.283	2066.48
805.601	1972.01
805.918	1867.32
806.236	1617.09
806.554	1596.66
806.871	1698.79
807.189	1806.04
807.507	1977.11
807.824	2010.31
808.141	1785.61
808.459	1566.02
808.776	1512.4
809.093	1486.86
809.411	1303.02
809.728	1297.91
810.045	1346.43
810.362	1356.64
810.679	1405.16
810.996	1287.7
811.313	1361.75
811.63	1420.48
811.947	1303.02
812.264	1328.55
812.58	1351.53
812.897	1223.87
813.214	1320.89
813.53	1297.91
813.847	1387.28
814.163	1234.08
814.48	1190.67
814.796	1285.15
815.113	1269.83
815.429	1098.75
815.745	1098.75
816.061	1134.5
816.378	1108.96
816.694	1065.56
817.01	1042.58
817.326	1032.36
817.642	1101.3
817.958	955.76
818.274	866.39
818.59	886.82
818.905	948.1
819.221	981.3
819.537	1022.15
819.852	960.87
820.168	1042.58
820.484	899.59
820.799	973.63
821.115	897.03
821.43	866.39
821.745	861.29
822.061	825.54
822.376	871.5
822.691	868.95
823.006	858.73
823.322	769.36
823.637	792.35
823.952	697.87
824.267	743.83
824.582	713.19
824.897	774.47
825.211	802.56
825.526	810.22
825.841	746.38
826.156	710.64
826.47	680
826.785	690.21
827.1	687.66
827.414	595.74
827.729	634.04
828.043	628.93
828.357	649.36
828.672	657.02
828.986	616.16
829.3	631.48
829.614	593.18
829.929	526.79
830.243	565.09
830.557	539.56
830.871	491.05
831.185	478.28
831.499	480.83
831.812	529.35
832.126	501.26
832.44	621.27
832.754	557.43
833.067	575.31
833.381	547.22
833.695	590.63
834.008	618.72
834.322	567.65
834.635	529.35
834.948	537.01
835.262	465.51
835.575	501.26
835.888	506.37
836.201	491.05
836.515	501.26
836.828	465.51
837.141	447.64
837.454	465.51
837.767	508.92
838.08	447.64
838.392	475.73
838.705	455.3
839.018	506.37
839.331	424.66
839.643	480.83
839.956	439.98
840.269	388.91
840.581	460.41
840.894	455.3
841.206	452.75
841.519	595.74
841.831	493.6
842.143	442.53
842.455	414.45
842.768	422.11
843.08	417
843.392	432.32
843.704	462.96
844.016	404.23
844.328	406.79
844.64	409.34
844.952	371.04
845.263	452.75
845.575	409.34
845.887	337.84
846.199	442.53
846.51	457.85
846.822	417
847.133	335.29
847.445	371.04
847.756	376.14
848.068	358.27
848.379	419.55
848.69	383.8
849.002	442.53
849.313	414.45
849.624	391.46
849.935	355.72
850.246	424.66
850.557	401.68
850.868	368.48
851.179	427.21
851.49	378.7
851.801	424.66
852.112	457.85
852.422	401.68
852.733	388.91
853.044	340.4
853.354	373.59
853.665	363.38
853.975	335.29
854.286	386.36
854.596	381.25
854.906	373.59
855.217	419.55
855.527	348.06
855.837	348.06
856.147	335.29
856.458	414.45
856.768	365.93
857.078	330.18
857.388	391.46
857.698	353.16
858.007	399.12
858.317	368.48
858.627	417
858.937	381.25
859.246	378.7
859.556	335.29
859.866	304.65
860.175	332.74
860.485	365.93
860.794	406.79
861.104	327.63
861.413	404.23
861.722	419.55
862.032	394.02
862.341	388.91
862.65	396.57
862.959	363.38
863.268	386.36
863.577	373.59
863.886	376.14
864.195	342.95
864.504	358.27
864.813	419.55
865.122	419.55
865.43	409.34
865.739	296.99
866.048	299.54
866.356	350.61
866.665	355.72
866.973	325.08
867.282	371.04
867.59	411.89
867.899	345.5
868.207	368.48
868.515	383.8
868.823	304.65
869.132	355.72
869.44	434.87
869.748	452.75
870.056	445.09
870.364	358.27
870.672	378.7
870.98	409.34
871.288	386.36
871.595	394.02
871.903	417
872.211	350.61
872.518	350.61
872.826	491.05
873.134	358.27
873.441	332.74
873.749	427.21
874.056	411.89
874.363	386.36
874.671	401.68
874.978	337.84
875.285	404.23
875.592	330.18
875.9	383.8
876.207	422.11
876.514	437.43
876.821	409.34
877.128	376.14
877.435	399.12
877.741	376.14
878.048	394.02
878.355	427.21
878.662	394.02
878.968	345.5
879.275	312.31
879.582	332.74
879.888	327.63
880.195	342.95
880.501	353.16
880.807	327.63
881.114	358.27
881.42	406.79
881.726	439.98
882.032	368.48
882.339	381.25
882.645	355.72
882.951	373.59
883.257	376.14
883.563	406.79
883.869	376.14
884.174	363.38
884.48	342.95
884.786	388.91
885.092	434.87
885.397	368.48
885.703	337.84
886.009	368.48
886.314	411.89
886.62	394.02
886.925	411.89
887.231	411.89
887.536	391.46
887.841	365.93
888.146	378.7
888.452	350.61
888.757	309.76
889.062	396.57
889.367	404.23
889.672	396.57
889.977	355.72
890.282	360.82
890.587	460.41
890.892	399.12
891.196	419.55
891.501	373.59
891.806	401.68
892.11	396.57
892.415	371.04
892.72	396.57
893.024	378.7
893.328	478.28
893.633	337.84
893.937	360.82
894.242	373.59
894.546	406.79
894.85	378.7
895.154	319.97
895.458	376.14
895.762	373.59
896.066	373.59
896.37	325.08
896.674	371.04
896.978	332.74
897.282	414.45
897.586	312.31
897.89	348.06
898.193	396.57
898.497	399.12
898.801	363.38
899.104	373.59
899.408	396.57
899.711	312.31
900.014	417
900.318	353.16
900.621	358.27
900.924	378.7
901.228	434.87
901.531	439.98
901.834	424.66
902.137	360.82
902.44	365.93
902.743	394.02
903.046	391.46
903.349	383.8
903.652	381.25
903.955	388.91
904.257	383.8
904.56	447.64
904.863	378.7
905.165	365.93
905.468	396.57
905.77	388.91
906.073	363.38
906.375	432.32
906.678	378.7
906.98	317.42
907.282	396.57
907.584	383.8
907.887	330.18
908.189	350.61
908.491	386.36
908.793	332.74
909.095	332.74
909.397	360.82
909.699	268.9
910.001	358.27
910.302	363.38
910.604	378.7
910.906	432.32
911.208	365.93
911.509	360.82
911.811	296.99
912.112	371.04
912.414	340.4
912.715	358.27
913.017	376.14
913.318	330.18
913.619	355.72
913.92	376.14
914.222	355.72
914.523	429.77
914.824	376.14
915.125	378.7
915.426	322.52
915.727	271.46
916.028	386.36
916.329	342.95
916.63	386.36
916.93	394.02
917.231	358.27
917.532	327.63
917.832	327.63
918.133	327.63
918.434	378.7
918.734	263.8
919.034	350.61
919.335	360.82
919.635	406.79
919.935	391.46
920.236	342.95
920.536	381.25
920.836	376.14
921.136	322.52
921.436	462.96
921.736	394.02
922.036	417
922.336	296.99
922.636	353.16
922.936	371.04
923.236	439.98
923.535	327.63
923.835	314.86
924.135	342.95
924.434	386.36
924.734	360.82
925.033	330.18
925.333	363.38
925.632	388.91
925.932	358.27
926.231	299.54
926.53	371.04
926.83	394.02
927.129	335.29
927.428	355.72
927.727	340.4
928.026	340.4
928.325	368.48
928.624	378.7
928.923	348.06
929.222	340.4
929.52	314.86
929.819	381.25
930.118	335.29
930.417	345.5
930.715	304.65
931.014	332.74
931.312	406.79
931.611	383.8
931.909	388.91
932.207	337.84
932.506	378.7
932.804	353.16
933.102	450.19
933.401	345.5
933.699	335.29
933.997	355.72
934.295	322.52
934.593	396.57
934.891	312.31
935.189	419.55
935.487	378.7
935.784	337.84
936.082	404.23
936.38	399.12
936.677	355.72
936.975	360.82
937.273	335.29
937.57	348.06
937.868	401.68
938.165	388.91
938.463	335.29
938.76	414.45
939.057	396.57
939.354	335.29
939.652	319.97
939.949	434.87
940.246	399.12
940.543	445.09
940.84	337.84
941.137	401.68
941.434	439.98
941.731	396.57
942.028	342.95
942.324	335.29
942.621	365.93
942.918	371.04
943.214	312.31
943.511	363.38
943.807	373.59
944.104	383.8
944.4	360.82
944.697	434.87
944.993	394.02
945.29	424.66
945.586	394.02
945.882	340.4
946.178	353.16
946.474	409.34
946.77	342.95
947.066	383.8
947.362	437.43
947.658	399.12
947.954	355.72
948.25	353.16
948.546	332.74
948.842	332.74
949.137	371.04
949.433	322.52
949.729	388.91
950.024	450.19
950.32	414.45
950.615	360.82
950.91	404.23
951.206	381.25
951.501	411.89
951.796	363.38
952.092	350.61
952.387	373.59
952.682	299.54
952.977	345.5
953.272	404.23
953.567	371.04
953.862	383.8
954.157	396.57
954.452	348.06
954.747	378.7
955.041	355.72
955.336	378.7
955.631	363.38
955.925	401.68
956.22	335.29
956.514	388.91
956.809	401.68
957.103	399.12
957.398	376.14
957.692	373.59
957.986	299.54
958.281	381.25
958.575	381.25
958.869	414.45
959.163	353.16
959.457	325.08
959.751	360.82
960.045	360.82
960.339	348.06
960.633	358.27
960.927	409.34
961.221	386.36
961.514	299.54
961.808	360.82
962.102	345.5
962.395	417
962.689	424.66
962.982	447.64
963.276	391.46
963.569	353.16
963.862	353.16
964.156	312.31
964.449	399.12
964.742	437.43
965.035	353.16
965.328	353.16
965.622	383.8
965.915	325.08
966.208	373.59
966.5	363.38
966.793	363.38
967.086	368.48
967.379	368.48
967.672	322.52
967.964	358.27
968.257	388.91
968.55	371.04
968.842	365.93
969.135	312.31
969.427	340.4
969.72	396.57
970.012	319.97
970.304	419.55
970.597	424.66
970.889	417
971.181	348.06
971.473	360.82
971.765	355.72
972.057	368.48
972.349	348.06
972.641	360.82
972.933	350.61
973.225	327.63
973.517	427.21
973.809	365.93
974.1	381.25
974.392	401.68
974.684	411.89
974.975	363.38
975.267	434.87
975.558	417
975.85	401.68
976.141	340.4
976.432	342.95
976.724	327.63
977.015	378.7
977.306	365.93
977.597	401.68
977.888	342.95
978.179	360.82
978.47	330.18
978.761	399.12
979.052	417
979.343	480.83
979.634	381.25
979.925	417
980.215	376.14
980.506	419.55
980.797	314.86
981.087	376.14
981.378	312.31
981.668	363.38
981.959	406.79
982.249	373.59
982.54	394.02
982.83	409.34
983.12	378.7
983.41	317.42
983.701	337.84
983.991	378.7
984.281	325.08
984.571	345.5
984.861	401.68
985.151	304.65
985.441	376.14
985.73	348.06
986.02	399.12
986.31	350.61
986.6	394.02
986.889	337.84
987.179	360.82
987.469	319.97
987.758	396.57
988.048	358.27
988.337	340.4
988.626	391.46
988.916	411.89
989.205	394.02
989.494	396.57
989.783	447.64
990.073	371.04
990.362	381.25
990.651	383.8
990.94	373.59
991.229	368.48
991.518	371.04
991.806	360.82
992.095	317.42
992.384	363.38
992.673	325.08
992.961	325.08
993.25	371.04
993.539	299.54
993.827	414.45
994.116	363.38
994.404	348.06
994.692	340.4
994.981	447.64
995.269	358.27
995.557	332.74
995.846	294.44
996.134	304.65
996.422	342.95
996.71	406.79
996.998	378.7
997.286	342.95
997.574	368.48
997.862	363.38
998.15	383.8
998.437	360.82
998.725	394.02
999.013	406.79
999.3	373.59
999.588	394.02
999.876	417
1000.163	348.06
1000.45	363.38
1000.738	358.27
1001.025	383.8
1001.313	337.84
1001.6	350.61
1001.887	353.16
1002.174	350.61
1002.461	394.02
1002.748	319.97
1003.036	381.25
1003.322	363.38
1003.609	360.82
1003.896	353.16
1004.183	386.36
1004.47	340.4
1004.757	378.7
1005.043	401.68
1005.33	358.27
1005.617	383.8
1005.903	350.61
1006.19	319.97
1006.476	365.93
1006.763	350.61
1007.049	414.45
1007.335	365.93
1007.622	365.93
1007.908	327.63
1008.194	309.76
1008.48	307.2
1008.766	332.74
1009.053	373.59
1009.339	299.54
1009.625	381.25
1009.91	371.04
1010.196	342.95
1010.482	388.91
1010.768	381.25
1011.054	314.86
1011.339	355.72
1011.625	399.12
1011.911	365.93
1012.196	360.82
1012.482	388.91
1012.767	388.91
1013.052	371.04
1013.338	455.3
1013.623	371.04
1013.908	365.93
1014.194	386.36
1014.479	396.57
1014.764	322.52
1015.049	355.72
1015.334	383.8
1015.619	368.48
1015.904	322.52
1016.189	342.95
1016.474	353.16
1016.758	337.84
1017.043	319.97
1017.328	317.42
1017.613	312.31
1017.897	388.91
1018.182	381.25
1018.466	345.5
1018.751	391.46
1019.035	404.23
1019.32	401.68
1019.604	365.93
1019.888	348.06
1020.172	348.06
1020.457	348.06
