Data from 2025-12-03_xpw_interference_micrometer_634_reference_FLMS141361__70__520.txt Node

Date: Wed Dec 03 15:52:26 MST 2025
User: james
Spectrometer: FLMS14136
Trigger mode: 0
Integration Time (sec): 1.000000E-1
Scans to average: 1
Electric dark correction enabled: true
Nonlinearity correction enabled: false
Boxcar width: 0
XAxis mode: Wavelengths
Number of Pixels in Spectrum: 2048
>>>>>Begin Spectral Data<<<<<
339.315	-26.81
339.697	-26.81
340.079	-26.81
340.461	-105.97
340.843	-113.63
341.225	-93.2
341.607	-93.2
341.989	-98.31
342.371	-39.58
342.752	-95.75
343.134	-44.68
343.516	-44.68
343.897	-26.81
344.279	3.83
344.661	37.02
345.042	42.13
345.423	1.28
345.805	60
346.186	95.75
346.567	103.41
346.949	192.78
347.33	182.57
347.711	134.05
348.092	264.27
348.473	187.67
348.854	251.51
349.235	251.51
349.616	264.27
349.997	307.68
350.378	325.56
350.758	292.36
351.139	277.04
351.52	323
351.9	386.84
352.281	374.07
352.661	363.86
353.042	361.3
353.422	379.18
353.803	379.18
354.183	358.75
354.563	430.24
354.943	422.58
355.324	443.01
355.704	397.05
356.084	391.94
356.464	391.94
356.844	407.26
357.224	417.48
357.603	348.54
357.983	315.34
358.363	397.05
358.743	399.6
359.122	440.46
359.502	361.3
359.882	368.96
360.261	409.82
360.641	335.77
361.02	300.02
361.399	376.62
361.779	345.98
362.158	325.56
362.537	358.75
362.916	351.09
363.296	358.75
363.675	328.11
364.054	323
364.433	371.52
364.812	391.94
365.19	279.59
365.569	315.34
365.948	368.96
366.327	320.45
366.705	371.52
367.084	371.52
367.463	374.07
367.841	335.77
368.22	310.24
368.598	402.16
368.977	356.2
369.355	348.54
369.733	333.22
370.111	320.45
370.49	335.77
370.868	333.22
371.246	366.41
371.624	374.07
372.002	371.52
372.38	333.22
372.758	379.18
373.136	420.03
373.513	384.28
373.891	376.62
374.269	297.47
374.646	330.66
375.024	356.2
375.402	287.26
375.779	374.07
376.157	274.49
376.534	330.66
376.911	414.92
377.289	402.16
377.666	297.47
378.043	302.58
378.42	335.77
378.797	353.64
379.175	361.3
379.552	376.62
379.929	409.82
380.305	292.36
380.682	348.54
381.059	315.34
381.436	307.68
381.813	310.24
382.189	333.22
382.566	361.3
382.943	394.5
383.319	340.88
383.696	371.52
384.072	353.64
384.448	361.3
384.825	368.96
385.201	432.8
385.577	345.98
385.953	379.18
386.329	391.94
386.706	356.2
387.082	356.2
387.458	394.5
387.834	330.66
388.209	345.98
388.585	394.5
388.961	394.5
389.337	343.43
389.713	376.62
390.088	379.18
390.464	348.54
390.839	389.39
391.215	384.28
391.59	312.79
391.966	320.45
392.341	340.88
392.716	402.16
393.092	348.54
393.467	374.07
393.842	345.98
394.217	412.37
394.592	289.81
394.967	340.88
395.342	374.07
395.717	363.86
396.092	376.62
396.467	432.8
396.841	371.52
397.216	404.71
397.591	348.54
397.965	348.54
398.34	335.77
398.714	335.77
399.089	333.22
399.463	345.98
399.838	345.98
400.212	358.75
400.586	435.35
400.961	363.86
401.335	307.68
401.709	384.28
402.083	437.9
402.457	368.96
402.831	374.07
403.205	407.26
403.579	394.5
403.953	353.64
404.326	325.56
404.7	363.86
405.074	363.86
405.447	338.32
405.821	317.9
406.195	358.75
406.568	389.39
406.942	425.14
407.315	427.69
407.688	340.88
408.062	330.66
408.435	386.84
408.808	358.75
409.181	409.82
409.554	351.09
409.927	391.94
410.3	358.75
410.673	371.52
411.046	371.52
411.419	340.88
411.792	417.48
412.165	391.94
412.537	422.58
412.91	391.94
413.283	443.01
413.655	384.28
414.028	458.33
414.4	437.9
414.773	402.16
415.145	397.05
415.517	414.92
415.889	409.82
416.262	404.71
416.634	381.73
417.006	368.96
417.378	409.82
417.75	427.69
418.122	379.18
418.494	361.3
418.866	340.88
419.238	381.73
419.609	307.68
419.981	427.69
420.353	310.24
420.725	330.66
421.096	315.34
421.468	391.94
421.839	363.86
422.211	448.12
422.582	407.26
422.953	394.5
423.325	320.45
423.696	358.75
424.067	409.82
424.438	450.67
424.809	363.86
425.18	310.24
425.551	335.77
425.922	386.84
426.293	412.37
426.664	389.39
427.035	448.12
427.406	440.46
427.776	368.96
428.147	325.56
428.518	330.66
428.888	409.82
429.259	422.58
429.629	391.94
429.999	394.5
430.37	412.37
430.74	437.9
431.11	340.88
431.481	448.12
431.851	343.43
432.221	345.98
432.591	440.46
432.961	417.48
433.331	368.96
433.701	363.86
434.071	460.88
434.441	381.73
434.81	394.5
435.18	300.02
435.55	430.24
435.919	391.94
436.289	371.52
436.658	450.67
437.028	463.44
437.397	386.84
437.767	422.58
438.136	335.77
438.505	412.37
438.875	427.69
439.244	414.92
439.613	356.2
439.982	409.82
440.351	417.48
440.72	394.5
441.089	409.82
441.458	414.92
441.827	386.84
442.196	384.28
442.564	471.1
442.933	412.37
443.302	358.75
443.67	379.18
444.039	435.35
444.407	412.37
444.776	391.94
445.144	351.09
445.513	386.84
445.881	450.67
446.249	407.26
446.617	305.13
446.986	345.98
447.354	409.82
447.722	397.05
448.09	363.86
448.458	328.11
448.826	399.6
449.194	391.94
449.561	471.1
449.929	430.24
450.297	397.05
450.665	386.84
451.032	397.05
451.4	407.26
451.767	453.22
452.135	445.56
452.502	348.54
452.87	440.46
453.237	476.2
453.604	376.62
453.971	440.46
454.339	366.41
454.706	361.3
455.073	414.92
455.44	353.64
455.807	361.3
456.174	409.82
456.541	391.94
456.908	445.56
457.274	414.92
457.641	361.3
458.008	402.16
458.374	397.05
458.741	414.92
459.108	425.14
459.474	422.58
459.841	325.56
460.207	399.6
460.573	384.28
460.94	389.39
461.306	391.94
461.672	363.86
462.038	402.16
462.404	399.6
462.771	386.84
463.137	417.48
463.503	358.75
463.868	351.09
464.234	448.12
464.6	414.92
464.966	323
465.332	427.69
465.697	361.3
466.063	374.07
466.429	460.88
466.794	476.2
467.16	425.14
467.525	386.84
467.89	409.82
468.256	386.84
468.621	404.71
468.986	414.92
469.351	368.96
469.717	453.22
470.082	399.6
470.447	430.24
470.812	399.6
471.177	386.84
471.542	432.8
471.906	427.69
472.271	381.73
472.636	376.62
473.001	445.56
473.365	371.52
473.73	435.35
474.094	361.3
474.459	384.28
474.823	363.86
475.188	381.73
475.552	445.56
475.917	407.26
476.281	409.82
476.645	409.82
477.009	397.05
477.373	414.92
477.737	404.71
478.101	325.56
478.465	371.52
478.829	317.9
479.193	404.71
479.557	409.82
479.921	343.43
480.284	376.62
480.648	468.54
481.012	440.46
481.375	371.52
481.739	399.6
482.102	445.56
482.466	425.14
482.829	453.22
483.193	483.87
483.556	443.01
483.919	358.75
484.282	399.6
484.645	325.56
485.009	371.52
485.372	386.84
485.735	335.77
486.098	443.01
486.46	394.5
486.823	356.2
487.186	399.6
487.549	430.24
487.912	407.26
488.274	368.96
488.637	404.71
488.999	366.41
489.362	437.9
489.724	374.07
490.087	437.9
490.449	496.63
490.811	471.1
491.174	363.86
491.536	414.92
491.898	379.18
492.26	389.39
492.622	437.9
492.984	420.03
493.346	414.92
493.708	453.22
494.07	402.16
494.432	389.39
494.794	483.87
495.155	440.46
495.517	427.69
495.879	432.8
496.24	483.87
496.602	386.84
496.963	483.87
497.325	394.5
497.686	453.22
498.048	381.73
498.409	440.46
498.77	366.41
499.131	317.9
499.492	402.16
499.854	432.8
500.215	376.62
500.576	389.39
500.937	412.37
501.298	458.33
501.658	448.12
502.019	460.88
502.38	427.69
502.741	320.45
503.101	409.82
503.462	353.64
503.823	422.58
504.183	420.03
504.543	453.22
504.904	463.44
505.264	374.07
505.625	376.62
505.985	443.01
506.345	407.26
506.705	478.76
507.065	379.18
507.426	409.82
507.786	407.26
508.146	363.86
508.505	409.82
508.865	371.52
509.225	422.58
509.585	445.56
509.945	491.53
510.304	473.65
510.664	417.48
511.024	402.16
511.383	368.96
511.743	381.73
512.102	381.73
512.462	425.14
512.821	361.3
513.18	397.05
513.539	417.48
513.899	432.8
514.258	450.67
514.617	432.8
514.976	348.54
515.335	455.78
515.694	432.8
516.053	417.48
516.412	422.58
516.771	407.26
517.129	343.43
517.488	325.56
517.847	368.96
518.205	473.65
518.564	460.88
518.922	379.18
519.281	368.96
519.639	427.69
519.998	443.01
520.356	427.69
520.714	361.3
521.073	376.62
521.431	409.82
521.789	443.01
522.147	404.71
522.505	335.77
522.863	420.03
523.221	437.9
523.579	422.58
523.937	404.71
524.295	353.64
524.652	407.26
525.01	440.46
525.368	417.48
525.725	414.92
526.083	384.28
526.44	425.14
526.798	494.08
527.155	460.88
527.513	455.78
527.87	358.75
528.227	404.71
528.584	448.12
528.942	417.48
529.299	435.35
529.656	422.58
530.013	420.03
530.37	435.35
530.727	399.6
531.083	368.96
531.44	417.48
531.797	458.33
532.154	450.67
532.511	417.48
532.867	407.26
533.224	440.46
533.58	481.31
533.937	427.69
534.293	348.54
534.65	404.71
535.006	417.48
535.362	453.22
535.718	430.24
536.075	437.9
536.431	460.88
536.787	445.56
537.143	422.58
537.499	397.05
537.855	465.99
538.211	361.3
538.567	430.24
538.923	422.58
539.278	389.39
539.634	333.22
539.99	391.94
540.345	391.94
540.701	402.16
541.056	361.3
541.412	394.5
541.767	371.52
542.123	432.8
542.478	335.77
542.833	402.16
543.188	379.18
543.544	407.26
543.899	432.8
544.254	399.6
544.609	386.84
544.964	417.48
545.319	414.92
545.674	391.94
546.029	340.88
546.383	343.43
546.738	333.22
547.093	348.54
547.447	345.98
547.802	402.16
548.157	399.6
548.511	374.07
548.866	422.58
549.22	363.86
549.574	391.94
549.929	412.37
550.283	460.88
550.637	371.52
550.991	409.82
551.345	463.44
551.699	402.16
552.053	351.09
552.407	391.94
552.761	427.69
553.115	356.2
553.469	448.12
553.823	448.12
554.176	351.09
554.53	414.92
554.884	389.39
555.237	695.8
555.591	425.14
555.944	443.01
556.298	450.67
556.651	391.94
557.005	356.2
557.358	343.43
557.711	422.58
558.064	427.69
558.417	381.73
558.771	471.1
559.124	440.46
559.477	391.94
559.83	379.18
560.182	402.16
560.535	366.41
560.888	366.41
561.241	458.33
561.594	391.94
561.946	356.2
562.299	450.67
562.651	414.92
563.004	420.03
563.356	402.16
563.709	409.82
564.061	422.58
564.413	455.78
564.766	427.69
565.118	407.26
565.47	361.3
565.822	330.66
566.174	374.07
566.526	409.82
566.878	425.14
567.23	422.58
567.582	320.45
567.934	440.46
568.286	397.05
568.638	425.14
568.989	397.05
569.341	376.62
569.693	412.37
570.044	414.92
570.396	486.42
570.747	455.78
571.098	440.46
571.45	386.84
571.801	399.6
572.152	425.14
572.504	323
572.855	386.84
573.206	414.92
573.557	345.98
573.908	430.24
574.259	348.54
574.61	343.43
574.961	333.22
575.311	338.32
575.662	345.98
576.013	376.62
576.364	374.07
576.714	404.71
577.065	340.88
577.415	465.99
577.766	389.39
578.116	420.03
578.467	363.86
578.817	345.98
579.167	379.18
579.518	397.05
579.868	417.48
580.218	409.82
580.568	445.56
580.918	422.58
581.268	399.6
581.618	394.5
581.968	407.26
582.318	379.18
582.668	427.69
583.017	422.58
583.367	389.39
583.717	297.47
584.066	386.84
584.416	379.18
584.765	397.05
585.115	371.52
585.464	427.69
585.814	409.82
586.163	463.44
586.512	425.14
586.862	412.37
587.211	440.46
587.56	412.37
587.909	391.94
588.258	379.18
588.607	386.84
588.956	391.94
589.305	340.88
589.654	437.9
590.002	402.16
590.351	440.46
590.7	386.84
591.048	320.45
591.397	343.43
591.746	366.41
592.094	371.52
592.443	374.07
592.791	448.12
593.139	343.43
593.488	414.92
593.836	463.44
594.184	420.03
594.532	430.24
594.88	420.03
595.228	343.43
595.576	351.09
595.924	402.16
596.272	407.26
596.62	422.58
596.968	409.82
597.316	402.16
597.664	371.52
598.011	389.39
598.359	381.73
598.706	463.44
599.054	397.05
599.402	402.16
599.749	412.37
600.096	443.01
600.444	402.16
600.791	414.92
601.138	371.52
601.485	417.48
601.833	386.84
602.18	437.9
602.527	389.39
602.874	407.26
603.221	409.82
603.568	450.67
603.914	420.03
604.261	412.37
604.608	399.6
604.955	325.56
605.301	361.3
605.648	412.37
605.995	412.37
606.341	402.16
606.688	435.35
607.034	361.3
607.38	391.94
607.727	437.9
608.073	402.16
608.419	404.71
608.765	463.44
609.112	397.05
609.458	399.6
609.804	376.62
610.15	363.86
610.496	412.37
610.842	435.35
611.187	412.37
611.533	414.92
611.879	409.82
612.225	432.8
612.57	394.5
612.916	381.73
613.261	409.82
613.607	386.84
613.952	402.16
614.298	455.78
614.643	310.24
614.989	391.94
615.334	420.03
615.679	422.58
616.024	404.71
616.369	376.62
616.714	356.2
617.059	345.98
617.404	397.05
617.749	420.03
618.094	450.67
618.439	399.6
618.784	414.92
619.129	404.71
619.473	437.9
619.818	361.3
620.163	381.73
620.507	358.75
620.852	389.39
621.196	358.75
621.54	361.3
621.885	376.62
622.229	427.69
622.573	402.16
622.918	397.05
623.262	412.37
623.606	425.14
623.95	374.07
624.294	397.05
624.638	368.96
624.982	391.94
625.326	425.14
625.67	465.99
626.013	435.35
626.357	427.69
626.701	386.84
627.044	363.86
627.388	394.5
627.731	374.07
628.075	465.99
628.418	420.03
628.762	409.82
629.105	430.24
629.448	374.07
629.792	445.56
630.135	463.44
630.478	412.37
630.821	437.9
631.164	394.5
631.507	399.6
631.85	417.48
632.193	448.12
632.536	414.92
632.879	389.39
633.221	335.77
633.564	445.56
633.907	481.31
634.249	430.24
634.592	412.37
634.935	409.82
635.277	420.03
635.619	443.01
635.962	335.77
636.304	417.48
636.646	407.26
636.989	417.48
637.331	488.97
637.673	379.18
638.015	445.56
638.357	409.82
638.699	384.28
639.041	409.82
639.383	381.73
639.725	379.18
640.067	407.26
640.408	384.28
640.75	432.8
641.092	351.09
641.433	330.66
641.775	394.5
642.116	363.86
642.458	432.8
642.799	412.37
643.141	371.52
643.482	465.99
643.823	384.28
644.164	366.41
644.506	422.58
644.847	351.09
645.188	414.92
645.529	399.6
645.87	404.71
646.211	386.84
646.552	437.9
646.893	430.24
647.233	529.83
647.574	404.71
647.915	404.71
648.255	379.18
648.596	386.84
648.937	343.43
649.277	353.64
649.618	343.43
649.958	330.66
650.298	323
650.639	384.28
650.979	384.28
651.319	455.78
651.659	366.41
651.999	435.35
652.339	384.28
652.679	399.6
653.019	379.18
653.359	455.78
653.699	399.6
654.039	425.14
654.379	448.12
654.719	432.8
655.058	409.82
655.398	356.2
655.737	363.86
656.077	379.18
656.416	432.8
656.756	386.84
657.095	399.6
657.435	374.07
657.774	381.73
658.113	361.3
658.452	374.07
658.792	473.65
659.131	389.39
659.47	463.44
659.809	402.16
660.148	343.43
660.487	448.12
660.826	422.58
661.164	402.16
661.503	407.26
661.842	409.82
662.181	389.39
662.519	437.9
662.858	391.94
663.196	425.14
663.535	300.02
663.873	417.48
664.212	379.18
664.55	463.44
664.888	384.28
665.226	448.12
665.565	368.96
665.903	555.36
666.241	432.8
666.579	348.54
666.917	476.2
667.255	402.16
667.593	407.26
667.931	397.05
668.268	381.73
668.606	404.71
668.944	310.24
669.282	440.46
669.619	409.82
669.957	443.01
670.294	358.75
670.632	325.56
670.969	407.26
671.307	335.77
671.644	407.26
671.981	391.94
672.318	409.82
672.656	435.35
672.993	399.6
673.33	384.28
673.667	407.26
674.004	391.94
674.341	363.86
674.678	402.16
675.015	425.14
675.351	389.39
675.688	320.45
676.025	389.39
676.362	386.84
676.698	338.32
677.035	407.26
677.371	361.3
677.708	320.45
678.044	425.14
678.38	407.26
678.717	425.14
679.053	412.37
679.389	437.9
679.725	394.5
680.062	399.6
680.398	348.54
680.734	417.48
681.07	389.39
681.406	379.18
681.742	381.73
682.077	315.34
682.413	404.71
682.749	437.9
683.085	432.8
683.42	417.48
683.756	414.92
684.091	450.67
684.427	425.14
684.762	397.05
685.098	389.39
685.433	399.6
685.768	325.56
686.104	394.5
686.439	353.64
686.774	391.94
687.109	371.52
687.444	348.54
687.779	353.64
688.114	440.46
688.449	391.94
688.784	391.94
689.119	345.98
689.454	323
689.789	427.69
690.123	376.62
690.458	397.05
690.792	430.24
691.127	379.18
691.461	368.96
691.796	389.39
692.13	399.6
692.465	320.45
692.799	386.84
693.133	402.16
693.467	345.98
693.802	427.69
694.136	417.48
694.47	425.14
694.804	407.26
695.138	384.28
695.472	368.96
695.806	450.67
696.139	312.79
696.473	425.14
696.807	425.14
697.141	366.41
697.474	351.09
697.808	389.39
698.141	476.2
698.475	353.64
698.808	425.14
699.142	422.58
699.475	402.16
699.808	368.96
700.142	445.56
700.475	409.82
700.808	376.62
701.141	381.73
701.474	386.84
701.807	409.82
702.14	432.8
702.473	399.6
702.806	397.05
703.139	425.14
703.472	453.22
703.804	407.26
704.137	386.84
704.47	430.24
704.802	435.35
705.135	417.48
705.467	420.03
705.8	394.5
706.132	345.98
706.464	394.5
706.797	363.86
707.129	345.98
707.461	414.92
707.793	389.39
708.125	404.71
708.457	394.5
708.789	333.22
709.121	384.28
709.453	402.16
709.785	384.28
710.117	374.07
710.449	384.28
710.781	399.6
711.112	371.52
711.444	358.75
711.775	368.96
712.107	379.18
712.438	391.94
712.77	310.24
713.101	340.88
713.433	422.58
713.764	345.98
714.095	371.52
714.426	463.44
714.757	371.52
715.089	407.26
715.42	460.88
715.751	494.08
716.082	437.9
716.412	351.09
716.743	353.64
717.074	391.94
717.405	391.94
717.736	445.56
718.066	345.98
718.397	394.5
718.727	335.77
719.058	351.09
719.388	368.96
719.719	399.6
720.049	389.39
720.38	399.6
720.71	412.37
721.04	417.48
721.37	402.16
721.7	381.73
722.031	356.2
722.361	407.26
722.691	328.11
723.021	361.3
723.35	361.3
723.68	399.6
724.01	435.35
724.34	407.26
724.67	412.37
724.999	422.58
725.329	325.56
725.658	363.86
725.988	450.67
726.317	397.05
726.647	376.62
726.976	374.07
727.306	379.18
727.635	391.94
727.964	348.54
728.293	414.92
728.622	409.82
728.952	422.58
729.281	361.3
729.61	356.2
729.939	307.68
730.267	345.98
730.596	407.26
730.925	391.94
731.254	425.14
731.583	335.77
731.911	399.6
732.24	414.92
732.568	443.01
732.897	343.43
733.225	317.9
733.554	402.16
733.882	379.18
734.21	397.05
734.539	425.14
734.867	417.48
735.195	417.48
735.523	366.41
735.851	368.96
736.179	389.39
736.507	394.5
736.835	404.71
737.163	358.75
737.491	407.26
737.819	412.37
738.147	420.03
738.474	440.46
738.802	351.09
739.13	358.75
739.457	351.09
739.785	437.9
740.112	386.84
740.44	284.7
740.767	412.37
741.094	335.77
741.422	435.35
741.749	394.5
742.076	353.64
742.403	443.01
742.73	420.03
743.057	323
743.384	374.07
743.711	399.6
744.038	366.41
744.365	463.44
744.692	471.1
745.018	414.92
745.345	381.73
745.672	414.92
745.998	443.01
746.325	412.37
746.651	389.39
746.978	335.77
747.304	425.14
747.631	407.26
747.957	386.84
748.283	463.44
748.61	317.9
748.936	363.86
749.262	348.54
749.588	363.86
749.914	376.62
750.24	391.94
750.566	374.07
750.892	422.58
751.218	389.39
751.543	384.28
751.869	361.3
752.195	379.18
752.521	443.01
752.846	458.33
753.172	404.71
753.497	371.52
753.823	386.84
754.148	448.12
754.473	517.06
754.799	323
755.124	402.16
755.449	425.14
755.774	384.28
756.1	358.75
756.425	389.39
756.75	397.05
757.075	348.54
757.4	481.31
757.724	412.37
758.049	448.12
758.374	440.46
758.699	402.16
759.024	320.45
759.348	381.73
759.673	363.86
759.997	386.84
760.322	386.84
760.646	422.58
760.971	371.52
761.295	348.54
761.619	363.86
761.944	450.67
762.268	417.48
762.592	391.94
762.916	402.16
763.24	389.39
763.564	376.62
763.888	399.6
764.212	483.87
764.536	432.8
764.86	427.69
765.184	476.2
765.508	473.65
765.831	504.29
766.155	734.1
766.478	563.02
766.802	435.35
767.126	560.47
767.449	529.83
767.772	476.2
768.096	529.83
768.419	598.77
768.742	547.7
769.066	522.17
769.389	639.62
769.712	639.62
770.035	665.15
770.358	670.26
770.681	642.17
771.004	736.65
771.327	746.86
771.65	713.67
771.972	762.18
772.295	751.97
772.618	739.2
772.941	723.88
773.263	808.14
773.586	930.71
773.908	925.6
774.231	943.47
774.553	1037.95
774.875	1137.53
775.198	1035.39
775.52	1022.63
775.842	953.69
776.164	986.88
776.487	1004.75
776.809	1066.04
777.131	1004.75
777.453	1076.25
777.775	1053.27
778.096	1117.1
778.418	1101.78
778.74	1168.17
779.062	1081.36
779.384	1163.06
779.705	1275.41
780.027	1380.1
780.348	1357.12
780.67	1349.46
780.991	1553.73
781.313	1584.37
781.634	1612.46
781.955	1630.33
782.277	1535.86
782.598	1694.17
782.919	1546.07
783.24	1671.19
783.561	1696.72
783.882	1617.56
784.203	1701.83
784.524	1627.78
784.845	1625.23
785.166	1648.21
785.487	1643.1
785.807	1625.23
786.128	1612.46
786.449	1576.71
786.769	1775.87
787.09	1855.03
787.41	1944.4
787.731	2202.29
788.051	2230.38
788.372	2284
788.692	2304.42
789.012	2306.98
789.332	2289.1
789.653	2404.01
789.973	2365.7
790.293	2467.84
790.613	2212.5
790.933	2209.95
791.253	2291.66
791.573	2207.4
791.893	2105.26
792.212	2079.73
792.532	2184.41
792.852	2169.09
793.171	1969.93
793.491	1918.86
793.811	2049.09
794.13	1952.06
794.45	1913.76
794.769	1839.71
795.088	1742.68
795.408	1773.32
795.727	1821.84
796.046	1847.37
796.365	1837.16
796.684	1783.53
797.004	1829.5
797.323	1929.08
797.642	2375.92
797.96	2457.63
798.279	2447.41
798.598	2276.34
798.917	2340.17
799.236	2253.36
799.554	2079.73
799.873	1941.84
800.192	1941.84
800.51	2046.53
800.829	2100.15
801.147	2049.09
801.466	1867.8
801.784	1949.5
802.102	1857.58
802.421	2038.87
802.739	2227.82
803.057	2135.9
803.375	2084.83
803.693	2110.37
804.011	2355.49
804.329	2373.36
804.647	2414.22
804.965	2133.35
805.283	1992.91
805.601	1962.27
805.918	1867.8
806.236	1821.84
806.554	1758
806.871	1821.84
807.189	1878.01
807.507	2059.3
807.824	2092.49
808.141	1837.16
808.459	1673.74
808.776	1574.16
809.093	1502.66
809.411	1369.89
809.728	1415.85
810.045	1385.21
810.362	1540.96
810.679	1357.12
810.996	1397.97
811.313	1441.38
811.63	1446.49
811.947	1359.67
812.264	1318.82
812.58	1267.75
812.897	1239.67
813.214	1318.82
813.53	1249.88
813.847	1387.76
814.163	1377.55
814.48	1285.63
814.796	1214.13
815.113	1300.95
815.429	1216.68
815.745	1078.8
816.061	1119.66
816.378	1150.3
816.694	1071.14
817.01	1071.14
817.326	1140.08
817.642	1053.27
817.958	1094.12
818.274	915.39
818.59	940.92
818.905	905.17
819.221	933.26
819.537	999.65
819.852	1032.84
820.168	994.54
820.484	971.56
820.799	938.37
821.115	956.24
821.43	856.66
821.745	882.19
822.061	887.3
822.376	894.96
822.691	910.28
823.006	915.39
823.322	774.95
823.637	746.86
823.952	757.08
824.267	749.42
824.582	772.4
824.897	813.25
825.211	871.98
825.526	790.27
825.841	744.31
826.156	772.4
826.47	731.54
826.785	723.88
827.1	647.28
827.414	690.69
827.729	690.69
828.043	598.77
828.357	660.05
828.672	693.24
828.986	644.73
829.3	654.94
829.614	644.73
829.929	634.51
830.243	583.45
830.557	586
830.871	448.12
831.185	509.4
831.499	580.89
831.812	488.97
832.126	494.08
832.44	629.41
832.754	634.51
833.067	649.83
833.381	660.05
833.695	606.43
834.008	578.34
834.322	524.72
834.635	491.53
834.948	517.06
835.262	545.15
835.575	471.1
835.888	509.4
836.201	519.61
836.515	537.49
836.828	565.57
837.141	473.65
837.454	481.31
837.767	496.63
838.08	476.2
838.392	499.19
838.705	391.94
839.018	540.04
839.331	409.82
839.643	425.14
839.956	496.63
840.269	483.87
840.581	450.67
840.894	412.37
841.206	435.35
841.519	624.3
841.831	443.01
842.143	432.8
842.455	432.8
842.768	440.46
843.08	437.9
843.392	397.05
843.704	448.12
844.016	427.69
844.328	407.26
844.64	445.56
844.952	455.78
845.263	445.56
845.575	445.56
845.887	368.96
846.199	445.56
846.51	465.99
846.822	420.03
847.133	440.46
847.445	427.69
847.756	404.71
848.068	394.5
848.379	412.37
848.69	432.8
849.002	404.71
849.313	348.54
849.624	399.6
849.935	386.84
850.246	376.62
850.557	394.5
850.868	473.65
851.179	402.16
851.49	450.67
851.801	430.24
852.112	409.82
852.422	351.09
852.733	468.54
853.044	351.09
853.354	361.3
853.665	391.94
853.975	315.34
854.286	409.82
854.596	376.62
854.906	356.2
855.217	376.62
855.527	425.14
855.837	371.52
856.147	399.6
856.458	450.67
856.768	379.18
857.078	445.56
857.388	335.77
857.698	376.62
858.007	315.34
858.317	397.05
858.627	348.54
858.937	328.11
859.246	420.03
859.556	404.71
859.866	409.82
860.175	361.3
860.485	407.26
860.794	345.98
861.104	389.39
861.413	458.33
861.722	402.16
862.032	363.86
862.341	348.54
862.65	325.56
862.959	414.92
863.268	366.41
863.577	348.54
863.886	325.56
864.195	323
864.504	333.22
864.813	328.11
865.122	391.94
865.43	425.14
865.739	435.35
866.048	384.28
866.356	386.84
866.665	340.88
866.973	379.18
867.282	328.11
867.59	445.56
867.899	399.6
868.207	361.3
868.515	376.62
868.823	448.12
869.132	394.5
869.44	407.26
869.748	422.58
870.056	394.5
870.364	445.56
870.672	368.96
870.98	368.96
871.288	376.62
871.595	384.28
871.903	435.35
872.211	340.88
872.518	356.2
872.826	455.78
873.134	409.82
873.441	404.71
873.749	345.98
874.056	353.64
874.363	353.64
874.671	371.52
874.978	338.32
875.285	317.9
875.592	435.35
875.9	435.35
876.207	412.37
876.514	417.48
876.821	391.94
877.128	420.03
877.435	368.96
877.741	366.41
878.048	379.18
878.355	397.05
878.662	437.9
878.968	417.48
879.275	420.03
879.582	391.94
879.888	307.68
880.195	287.26
880.501	409.82
880.807	427.69
881.114	432.8
881.42	366.41
881.726	345.98
882.032	407.26
882.339	333.22
882.645	345.98
882.951	389.39
883.257	358.75
883.563	384.28
883.869	379.18
884.174	414.92
884.48	386.84
884.786	320.45
885.092	404.71
885.397	402.16
885.703	435.35
886.009	343.43
886.314	437.9
886.62	363.86
886.925	361.3
887.231	420.03
887.536	414.92
887.841	430.24
888.146	404.71
888.452	443.01
888.757	386.84
889.062	409.82
889.367	443.01
889.672	394.5
889.977	386.84
890.282	460.88
890.587	340.88
890.892	325.56
891.196	317.9
891.501	348.54
891.806	381.73
892.11	397.05
892.415	363.86
892.72	330.66
893.024	386.84
893.328	483.87
893.633	353.64
893.937	476.2
894.242	391.94
894.546	399.6
894.85	376.62
895.154	374.07
895.458	465.99
895.762	427.69
896.066	330.66
896.37	389.39
896.674	384.28
896.978	399.6
897.282	353.64
897.586	351.09
897.89	371.52
898.193	399.6
898.497	386.84
898.801	404.71
899.104	458.33
899.408	432.8
899.711	432.8
900.014	404.71
900.318	384.28
900.621	420.03
900.924	381.73
901.228	397.05
901.531	328.11
901.834	394.5
902.137	407.26
902.44	391.94
902.743	435.35
903.046	356.2
903.349	348.54
903.652	379.18
903.955	386.84
904.257	394.5
904.56	368.96
904.863	356.2
905.165	356.2
905.468	374.07
905.77	363.86
906.073	386.84
906.375	374.07
906.678	450.67
906.98	404.71
907.282	420.03
907.584	384.28
907.887	368.96
908.189	391.94
908.491	353.64
908.793	391.94
909.095	368.96
909.397	391.94
909.699	361.3
910.001	409.82
910.302	407.26
910.604	381.73
910.906	427.69
911.208	453.22
911.509	453.22
911.811	450.67
912.112	407.26
912.414	348.54
912.715	432.8
913.017	412.37
913.318	376.62
913.619	379.18
913.92	284.7
914.222	325.56
914.523	397.05
914.824	379.18
915.125	381.73
915.426	420.03
915.727	399.6
916.028	353.64
916.329	310.24
916.63	412.37
916.93	397.05
917.231	391.94
917.532	353.64
917.832	397.05
918.133	432.8
918.434	404.71
918.734	356.2
919.034	328.11
919.335	348.54
919.635	345.98
919.935	343.43
920.236	389.39
920.536	397.05
920.836	381.73
921.136	445.56
921.436	486.42
921.736	386.84
922.036	394.5
922.336	422.58
922.636	384.28
922.936	379.18
923.236	379.18
923.535	379.18
923.835	412.37
924.135	363.86
924.434	432.8
924.734	340.88
925.033	381.73
925.333	391.94
925.632	328.11
925.932	356.2
926.231	391.94
926.53	345.98
926.83	412.37
927.129	412.37
927.428	353.64
927.727	345.98
928.026	277.04
928.325	325.56
928.624	381.73
928.923	363.86
929.222	348.54
929.52	468.54
929.819	450.67
930.118	386.84
930.417	307.68
930.715	366.41
931.014	420.03
931.312	453.22
931.611	404.71
931.909	391.94
932.207	399.6
932.506	325.56
932.804	391.94
933.102	445.56
933.401	386.84
933.699	381.73
933.997	379.18
934.295	427.69
934.593	420.03
934.891	409.82
935.189	345.98
935.487	427.69
935.784	414.92
936.082	427.69
936.38	386.84
936.677	425.14
936.975	384.28
937.273	374.07
937.57	404.71
937.868	379.18
938.165	368.96
938.463	409.82
938.76	348.54
939.057	368.96
939.354	402.16
939.652	397.05
939.949	422.58
940.246	340.88
940.543	335.77
940.84	330.66
941.137	358.75
941.434	371.52
941.731	351.09
942.028	394.5
942.324	366.41
942.621	320.45
942.918	412.37
943.214	402.16
943.511	399.6
943.807	409.82
944.104	330.66
944.4	397.05
944.697	345.98
944.993	407.26
945.29	402.16
945.586	340.88
945.882	348.54
946.178	323
946.474	317.9
946.77	340.88
947.066	351.09
947.362	351.09
947.658	389.39
947.954	427.69
948.25	371.52
948.546	345.98
948.842	335.77
949.137	330.66
949.433	394.5
949.729	397.05
950.024	379.18
950.32	409.82
950.615	330.66
950.91	312.79
951.206	333.22
951.501	356.2
951.796	325.56
952.092	345.98
952.387	384.28
952.682	414.92
952.977	328.11
953.272	317.9
953.567	414.92
953.862	420.03
954.157	409.82
954.452	386.84
954.747	361.3
955.041	394.5
955.336	391.94
955.631	422.58
955.925	450.67
956.22	402.16
956.514	358.75
956.809	356.2
957.103	397.05
957.398	407.26
957.692	345.98
957.986	366.41
958.281	348.54
958.575	328.11
958.869	348.54
959.163	368.96
959.457	343.43
959.751	356.2
960.045	371.52
960.339	402.16
960.633	351.09
960.927	389.39
961.221	368.96
961.514	366.41
961.808	356.2
962.102	422.58
962.395	437.9
962.689	412.37
962.982	368.96
963.276	435.35
963.569	407.26
963.862	425.14
964.156	310.24
964.449	361.3
964.742	465.99
965.035	374.07
965.328	455.78
965.622	412.37
965.915	366.41
966.208	414.92
966.5	409.82
966.793	343.43
967.086	437.9
967.379	379.18
967.672	368.96
967.964	366.41
968.257	333.22
968.55	379.18
968.842	371.52
969.135	335.77
969.427	358.75
969.72	399.6
970.012	427.69
970.304	478.76
970.597	414.92
970.889	376.62
971.181	351.09
971.473	414.92
971.765	343.43
972.057	302.58
972.349	399.6
972.641	432.8
972.933	389.39
973.225	348.54
973.517	420.03
973.809	381.73
974.1	356.2
974.392	330.66
974.684	345.98
974.975	310.24
975.267	243.85
975.558	379.18
975.85	432.8
976.141	348.54
976.432	432.8
976.724	384.28
977.015	325.56
977.306	330.66
977.597	448.12
977.888	412.37
978.179	328.11
978.47	353.64
978.761	417.48
979.052	414.92
979.343	376.62
979.634	391.94
979.925	399.6
980.215	440.46
980.506	435.35
980.797	420.03
981.087	386.84
981.378	437.9
981.668	345.98
981.959	343.43
982.249	391.94
982.54	455.78
982.83	440.46
983.12	414.92
983.41	343.43
983.701	371.52
983.991	287.26
984.281	315.34
984.571	338.32
984.861	389.39
985.151	376.62
985.441	407.26
985.73	440.46
986.02	335.77
986.31	407.26
986.6	394.5
986.889	374.07
987.179	361.3
987.469	353.64
987.758	328.11
988.048	333.22
988.337	348.54
988.626	356.2
988.916	358.75
989.205	427.69
989.494	404.71
989.783	412.37
990.073	379.18
990.362	417.48
990.651	368.96
990.94	420.03
991.229	381.73
991.518	361.3
991.806	414.92
992.095	402.16
992.384	351.09
992.673	371.52
992.961	397.05
993.25	430.24
993.539	386.84
993.827	402.16
994.116	448.12
994.404	384.28
994.692	376.62
994.981	384.28
995.269	417.48
995.557	363.86
995.846	399.6
996.134	368.96
996.422	374.07
996.71	317.9
996.998	379.18
997.286	412.37
997.574	356.2
997.862	317.9
998.15	305.13
998.437	371.52
998.725	361.3
999.013	435.35
999.3	356.2
999.588	389.39
999.876	345.98
1000.163	376.62
1000.45	343.43
1000.738	348.54
1001.025	325.56
1001.313	460.88
1001.6	338.32
1001.887	389.39
1002.174	417.48
1002.461	435.35
1002.748	443.01
1003.036	402.16
1003.322	340.88
1003.609	414.92
1003.896	425.14
1004.183	371.52
1004.47	376.62
1004.757	376.62
1005.043	379.18
1005.33	399.6
1005.617	366.41
1005.903	348.54
1006.19	338.32
1006.476	371.52
1006.763	386.84
1007.049	292.36
1007.335	391.94
1007.622	407.26
1007.908	381.73
1008.194	353.64
1008.48	343.43
1008.766	407.26
1009.053	389.39
1009.339	356.2
1009.625	333.22
1009.91	394.5
1010.196	465.99
1010.482	391.94
1010.768	358.75
1011.054	338.32
1011.339	348.54
1011.625	374.07
1011.911	340.88
1012.196	320.45
1012.482	402.16
1012.767	407.26
1013.052	404.71
1013.338	366.41
1013.623	381.73
1013.908	381.73
1014.194	353.64
1014.479	394.5
1014.764	409.82
1015.049	417.48
1015.334	366.41
1015.619	317.9
1015.904	338.32
1016.189	345.98
1016.474	409.82
1016.758	343.43
1017.043	335.77
1017.328	376.62
1017.613	389.39
1017.897	437.9
1018.182	379.18
1018.466	389.39
1018.751	404.71
1019.035	335.77
1019.32	404.71
1019.604	366.41
1019.888	397.05
1020.172	397.05
1020.457	397.05
