Data from 2025-12-03_xpw_interference_micrometer_634_reference_FLMS141361__9__459.txt Node

Date: Wed Dec 03 15:52:20 MST 2025
User: james
Spectrometer: FLMS14136
Trigger mode: 0
Integration Time (sec): 1.000000E-1
Scans to average: 1
Electric dark correction enabled: true
Nonlinearity correction enabled: false
Boxcar width: 0
XAxis mode: Wavelengths
Number of Pixels in Spectrum: 2048
>>>>>Begin Spectral Data<<<<<
339.315	-3.03
339.697	-3.03
340.079	-3.03
340.461	-89.85
340.843	-38.78
341.225	-87.29
341.607	-158.79
341.989	-92.4
342.371	-120.49
342.752	-79.63
343.134	-158.79
343.516	-15.8
343.897	-18.35
344.279	12.29
344.661	22.5
345.042	81.23
345.423	86.34
345.805	109.32
346.186	129.74
346.567	104.21
346.949	185.92
347.33	193.58
347.711	214
348.092	229.33
348.473	191.02
348.854	252.31
349.235	354.44
349.616	379.97
349.997	331.46
350.378	336.57
350.758	341.67
351.139	413.17
351.52	344.23
351.9	372.31
352.281	339.12
352.661	311.03
353.042	341.67
353.422	356.99
353.803	413.17
354.183	415.72
354.563	331.46
354.943	382.53
355.324	385.08
355.704	443.81
356.084	356.99
356.464	382.53
356.844	423.38
357.224	372.31
357.603	397.85
357.983	344.23
358.363	418.28
358.743	433.6
359.122	433.6
359.502	400.4
359.882	413.17
360.261	359.55
360.641	443.81
361.02	397.85
361.399	308.48
361.779	295.71
362.158	379.97
362.537	346.78
362.916	354.44
363.296	379.97
363.675	359.55
364.054	369.76
364.433	354.44
364.812	408.06
365.19	390.19
365.569	344.23
365.948	334.01
366.327	356.99
366.705	415.72
367.084	354.44
367.463	408.06
367.841	316.14
368.22	328.91
368.598	321.25
368.977	392.74
369.355	354.44
369.733	369.76
370.111	415.72
370.49	438.7
370.868	387.63
371.246	311.03
371.624	359.55
372.002	356.99
372.38	334.01
372.758	344.23
373.136	367.21
373.513	379.97
373.891	359.55
374.269	351.89
374.646	346.78
375.024	339.12
375.402	400.4
375.779	390.19
376.157	280.39
376.534	395.29
376.911	425.94
377.289	293.16
377.666	334.01
378.043	351.89
378.42	367.21
378.797	331.46
379.175	336.57
379.552	326.35
379.929	336.57
380.305	359.55
380.682	336.57
381.059	405.51
381.436	431.04
381.813	395.29
382.189	323.8
382.566	354.44
382.943	397.85
383.319	379.97
383.696	351.89
384.072	387.63
384.448	362.1
384.825	374.87
385.201	364.65
385.577	469.34
385.953	349.33
386.329	295.71
386.706	413.17
387.082	418.28
387.458	425.94
387.834	400.4
388.209	344.23
388.585	377.42
388.961	369.76
389.337	433.6
389.713	400.4
390.088	392.74
390.464	339.12
390.839	385.08
391.215	413.17
391.59	446.36
391.966	408.06
392.341	369.76
392.716	423.38
393.092	356.99
393.467	372.31
393.842	405.51
394.217	354.44
394.592	392.74
394.967	374.87
395.342	377.42
395.717	351.89
396.092	372.31
396.467	372.31
396.841	474.45
397.216	379.97
397.591	408.06
397.965	397.85
398.34	362.1
398.714	372.31
399.089	364.65
399.463	390.19
399.838	344.23
400.212	402.95
400.586	362.1
400.961	367.21
401.335	400.4
401.709	443.81
402.083	367.21
402.457	413.17
402.831	482.11
403.205	482.11
403.579	423.38
403.953	451.47
404.326	367.21
404.7	385.08
405.074	410.62
405.447	392.74
405.821	395.29
406.195	415.72
406.568	402.95
406.942	425.94
407.315	413.17
407.688	351.89
408.062	356.99
408.435	387.63
408.808	413.17
409.181	433.6
409.554	433.6
409.927	410.62
410.3	390.19
410.673	331.46
411.046	372.31
411.419	428.49
411.792	410.62
412.165	400.4
412.537	367.21
412.91	387.63
413.283	390.19
413.655	364.65
414.028	420.83
414.4	405.51
414.773	441.26
415.145	390.19
415.517	397.85
415.889	369.76
416.262	454.02
416.634	364.65
417.006	400.4
417.378	395.29
417.75	385.08
418.122	423.38
418.494	454.02
418.866	471.9
419.238	402.95
419.609	418.28
419.981	362.1
420.353	341.67
420.725	451.47
421.096	387.63
421.468	359.55
421.839	413.17
422.211	408.06
422.582	385.08
422.953	405.51
423.325	359.55
423.696	392.74
424.067	339.12
424.438	341.67
424.809	341.67
425.18	359.55
425.551	346.78
425.922	379.97
426.293	372.31
426.664	479.56
427.035	517.86
427.406	410.62
427.776	456.58
428.147	433.6
428.518	390.19
428.888	387.63
429.259	415.72
429.629	372.31
429.999	423.38
430.37	410.62
430.74	385.08
431.11	418.28
431.481	387.63
431.851	428.49
432.221	405.51
432.591	382.53
432.961	369.76
433.331	492.32
433.701	385.08
434.071	362.1
434.441	443.81
434.81	410.62
435.18	405.51
435.55	392.74
435.919	443.81
436.289	418.28
436.658	410.62
437.028	474.45
437.397	448.92
437.767	341.67
438.136	405.51
438.505	415.72
438.875	459.13
439.244	456.58
439.613	408.06
439.982	423.38
440.351	402.95
440.72	456.58
441.089	428.49
441.458	405.51
441.827	387.63
442.196	443.81
442.564	454.02
442.933	446.36
443.302	459.13
443.67	400.4
444.039	362.1
444.407	402.95
444.776	433.6
445.144	451.47
445.513	431.04
445.881	423.38
446.249	408.06
446.617	392.74
446.986	415.72
447.354	420.83
447.722	362.1
448.09	354.44
448.458	377.42
448.826	474.45
449.194	436.15
449.561	408.06
449.929	382.53
450.297	385.08
450.665	408.06
451.032	494.88
451.4	395.29
451.767	413.17
452.135	408.06
452.502	395.29
452.87	433.6
453.237	454.02
453.604	402.95
453.971	451.47
454.339	479.56
454.706	423.38
455.073	397.85
455.44	387.63
455.807	451.47
456.174	461.68
456.541	418.28
456.908	390.19
457.274	420.83
457.641	410.62
458.008	410.62
458.374	451.47
458.741	379.97
459.108	431.04
459.474	441.26
459.841	415.72
460.207	395.29
460.573	318.69
460.94	451.47
461.306	364.65
461.672	408.06
462.038	362.1
462.404	354.44
462.771	512.75
463.137	448.92
463.503	369.76
463.868	372.31
464.234	367.21
464.6	390.19
464.966	410.62
465.332	379.97
465.697	418.28
466.063	471.9
466.429	420.83
466.794	410.62
467.16	451.47
467.525	410.62
467.89	374.87
468.256	456.58
468.621	482.11
468.986	436.15
469.351	379.97
469.717	367.21
470.082	474.45
470.447	420.83
470.812	387.63
471.177	425.94
471.542	446.36
471.906	382.53
472.271	400.4
472.636	441.26
473.001	351.89
473.365	408.06
473.73	479.56
474.094	492.32
474.459	400.4
474.823	377.42
475.188	359.55
475.552	379.97
475.917	344.23
476.281	385.08
476.645	420.83
477.009	451.47
477.373	436.15
477.737	326.35
478.101	428.49
478.465	431.04
478.829	420.83
479.193	387.63
479.557	405.51
479.921	456.58
480.284	425.94
480.648	405.51
481.012	451.47
481.375	438.7
481.739	438.7
482.102	402.95
482.466	428.49
482.829	533.18
483.193	379.97
483.556	451.47
483.919	423.38
484.282	395.29
484.645	400.4
485.009	456.58
485.372	420.83
485.735	428.49
486.098	408.06
486.46	466.79
486.823	418.28
487.186	379.97
487.549	425.94
487.912	446.36
488.274	372.31
488.637	369.76
488.999	364.65
489.362	413.17
489.724	413.17
490.087	413.17
490.449	410.62
490.811	448.92
491.174	413.17
491.536	469.34
491.898	413.17
492.26	425.94
492.622	400.4
492.984	428.49
493.346	477
493.708	448.92
494.07	423.38
494.432	436.15
494.794	400.4
495.155	438.7
495.517	400.4
495.879	392.74
496.24	433.6
496.602	446.36
496.963	512.75
497.325	461.68
497.686	402.95
498.048	469.34
498.409	423.38
498.77	436.15
499.131	420.83
499.492	408.06
499.854	446.36
500.215	479.56
500.576	489.77
500.937	405.51
501.298	390.19
501.658	397.85
502.019	456.58
502.38	400.4
502.741	438.7
503.101	436.15
503.462	456.58
503.823	443.81
504.183	405.51
504.543	436.15
504.904	382.53
505.264	382.53
505.625	387.63
505.985	387.63
506.345	382.53
506.705	428.49
507.065	438.7
507.426	446.36
507.786	431.04
508.146	418.28
508.505	451.47
508.865	431.04
509.225	377.42
509.585	492.32
509.945	420.83
510.304	339.12
510.664	390.19
511.024	441.26
511.383	385.08
511.743	425.94
512.102	420.83
512.462	420.83
512.821	431.04
513.18	387.63
513.539	433.6
513.899	436.15
514.258	359.55
514.617	410.62
514.976	431.04
515.335	438.7
515.694	397.85
516.053	410.62
516.412	517.86
516.771	461.68
517.129	502.54
517.488	461.68
517.847	410.62
518.205	326.35
518.564	420.83
518.922	461.68
519.281	364.65
519.639	364.65
519.998	431.04
520.356	425.94
520.714	354.44
521.073	387.63
521.431	413.17
521.789	456.58
522.147	367.21
522.505	433.6
522.863	344.23
523.221	459.13
523.579	448.92
523.937	492.32
524.295	443.81
524.652	479.56
525.01	502.54
525.368	466.79
525.725	431.04
526.083	459.13
526.44	451.47
526.798	451.47
527.155	515.3
527.513	385.08
527.87	328.91
528.227	400.4
528.584	379.97
528.942	438.7
529.299	510.2
529.656	400.4
530.013	400.4
530.37	441.26
530.727	461.68
531.083	410.62
531.44	405.51
531.797	436.15
532.154	425.94
532.511	420.83
532.867	482.11
533.224	397.85
533.58	387.63
533.937	346.78
534.293	415.72
534.65	379.97
535.006	364.65
535.362	405.51
535.718	410.62
536.075	423.38
536.431	374.87
536.787	459.13
537.143	459.13
537.499	349.33
537.855	418.28
538.211	469.34
538.567	410.62
538.923	461.68
539.278	456.58
539.634	497.43
539.99	425.94
540.345	395.29
540.701	415.72
541.056	413.17
541.412	459.13
541.767	367.21
542.123	423.38
542.478	408.06
542.833	515.3
543.188	420.83
543.544	451.47
543.899	428.49
544.254	379.97
544.609	479.56
544.964	456.58
545.319	436.15
545.674	420.83
546.029	482.11
546.383	410.62
546.738	459.13
547.093	464.24
547.447	477
547.802	436.15
548.157	390.19
548.511	451.47
548.866	408.06
549.22	413.17
549.574	464.24
549.929	390.19
550.283	431.04
550.637	415.72
550.991	372.31
551.345	479.56
551.699	425.94
552.053	471.9
552.407	377.42
552.761	443.81
553.115	497.43
553.469	510.2
553.823	364.65
554.176	374.87
554.53	377.42
554.884	413.17
555.237	599.57
555.591	454.02
555.944	484.66
556.298	446.36
556.651	433.6
557.005	392.74
557.358	423.38
557.711	438.7
558.064	382.53
558.417	336.57
558.771	505.09
559.124	387.63
559.477	390.19
559.83	443.81
560.182	451.47
560.535	377.42
560.888	436.15
561.241	451.47
561.594	397.85
561.946	410.62
562.299	369.76
562.651	418.28
563.004	451.47
563.356	425.94
563.709	359.55
564.061	410.62
564.413	328.91
564.766	451.47
565.118	459.13
565.47	477
565.822	461.68
566.174	456.58
566.526	425.94
566.878	446.36
567.23	397.85
567.582	400.4
567.934	418.28
568.286	448.92
568.638	448.92
568.989	461.68
569.341	420.83
569.693	436.15
570.044	400.4
570.396	431.04
570.747	328.91
571.098	364.65
571.45	438.7
571.801	431.04
572.152	456.58
572.504	431.04
572.855	408.06
573.206	446.36
573.557	400.4
573.908	443.81
574.259	420.83
574.61	385.08
574.961	372.31
575.311	415.72
575.662	331.46
576.013	379.97
576.364	448.92
576.714	418.28
577.065	438.7
577.415	474.45
577.766	441.26
578.116	420.83
578.467	456.58
578.817	466.79
579.167	469.34
579.518	451.47
579.868	420.83
580.218	418.28
580.568	479.56
580.918	471.9
581.268	379.97
581.618	466.79
581.968	436.15
582.318	395.29
582.668	420.83
583.017	385.08
583.367	408.06
583.717	382.53
584.066	351.89
584.416	385.08
584.765	438.7
585.115	354.44
585.464	346.78
585.814	346.78
586.163	428.49
586.512	374.87
586.862	408.06
587.211	466.79
587.56	364.65
587.909	420.83
588.258	408.06
588.607	431.04
588.956	448.92
589.305	392.74
589.654	425.94
590.002	405.51
590.351	405.51
590.7	328.91
591.048	382.53
591.397	392.74
591.746	479.56
592.094	362.1
592.443	395.29
592.791	397.85
593.139	413.17
593.488	431.04
593.836	423.38
594.184	351.89
594.532	410.62
594.88	474.45
595.228	441.26
595.576	418.28
595.924	372.31
596.272	334.01
596.62	408.06
596.968	415.72
597.316	436.15
597.664	464.24
598.011	387.63
598.359	425.94
598.706	438.7
599.054	336.57
599.402	418.28
599.749	431.04
600.096	459.13
600.444	451.47
600.791	410.62
601.138	415.72
601.485	446.36
601.833	420.83
602.18	431.04
602.527	420.83
602.874	382.53
603.221	387.63
603.568	390.19
603.914	425.94
604.261	420.83
604.608	408.06
604.955	431.04
605.301	364.65
605.648	351.89
605.995	400.4
606.341	446.36
606.688	431.04
607.034	392.74
607.38	367.21
607.727	410.62
608.073	397.85
608.419	390.19
608.765	433.6
609.112	415.72
609.458	410.62
609.804	395.29
610.15	436.15
610.496	402.95
610.842	387.63
611.187	410.62
611.533	469.34
611.879	367.21
612.225	408.06
612.57	385.08
612.916	446.36
613.261	415.72
613.607	379.97
613.952	359.55
614.298	413.17
614.643	433.6
614.989	423.38
615.334	400.4
615.679	395.29
616.024	428.49
616.369	423.38
616.714	443.81
617.059	471.9
617.404	438.7
617.749	471.9
618.094	362.1
618.439	433.6
618.784	395.29
619.129	395.29
619.473	441.26
619.818	448.92
620.163	423.38
620.507	413.17
620.852	474.45
621.196	436.15
621.54	405.51
621.885	387.63
622.229	413.17
622.573	454.02
622.918	382.53
623.262	418.28
623.606	344.23
623.95	413.17
624.294	469.34
624.638	459.13
624.982	405.51
625.326	423.38
625.67	382.53
626.013	354.44
626.357	415.72
626.701	448.92
627.044	464.24
627.388	443.81
627.731	469.34
628.075	433.6
628.418	436.15
628.762	428.49
629.105	418.28
629.448	436.15
629.792	387.63
630.135	448.92
630.478	354.44
630.821	395.29
631.164	408.06
631.507	420.83
631.85	369.76
632.193	505.09
632.536	428.49
632.879	374.87
633.221	415.72
633.564	400.4
633.907	448.92
634.249	415.72
634.592	356.99
634.935	387.63
635.277	451.47
635.619	431.04
635.962	438.7
636.304	400.4
636.646	385.08
636.989	420.83
637.331	379.97
637.673	441.26
638.015	379.97
638.357	372.31
638.699	410.62
639.041	395.29
639.383	466.79
639.725	385.08
640.067	408.06
640.408	456.58
640.75	356.99
641.092	326.35
641.433	443.81
641.775	379.97
642.116	438.7
642.458	512.75
642.799	415.72
643.141	397.85
643.482	390.19
643.823	451.47
644.164	364.65
644.506	479.56
644.847	512.75
645.188	395.29
645.529	369.76
645.87	402.95
646.211	359.55
646.552	456.58
646.893	428.49
647.233	456.58
647.574	423.38
647.915	390.19
648.255	433.6
648.596	420.83
648.937	418.28
649.277	479.56
649.618	420.83
649.958	402.95
650.298	374.87
650.639	369.76
650.979	390.19
651.319	385.08
651.659	382.53
651.999	397.85
652.339	328.91
652.679	471.9
653.019	326.35
653.359	362.1
653.699	395.29
654.039	374.87
654.379	405.51
654.719	425.94
655.058	448.92
655.398	377.42
655.737	408.06
656.077	423.38
656.416	408.06
656.756	487.22
657.095	420.83
657.435	385.08
657.774	402.95
658.113	451.47
658.452	392.74
658.792	379.97
659.131	392.74
659.47	408.06
659.809	405.51
660.148	372.31
660.487	420.83
660.826	443.81
661.164	466.79
661.503	402.95
661.842	408.06
662.181	379.97
662.519	392.74
662.858	392.74
663.196	382.53
663.535	395.29
663.873	328.91
664.212	372.31
664.55	454.02
664.888	494.88
665.226	356.99
665.565	420.83
665.903	571.48
666.241	454.02
666.579	443.81
666.917	425.94
667.255	507.64
667.593	471.9
667.931	448.92
668.268	459.13
668.606	397.85
668.944	433.6
669.282	436.15
669.619	395.29
669.957	400.4
670.294	374.87
670.632	464.24
670.969	448.92
671.307	413.17
671.644	420.83
671.981	438.7
672.318	443.81
672.656	436.15
672.993	392.74
673.33	374.87
673.667	364.65
674.004	454.02
674.341	443.81
674.678	418.28
675.015	372.31
675.351	443.81
675.688	392.74
676.025	336.57
676.362	385.08
676.698	402.95
677.035	413.17
677.371	464.24
677.708	400.4
678.044	418.28
678.38	346.78
678.717	479.56
679.053	331.46
679.389	400.4
679.725	420.83
680.062	456.58
680.398	456.58
680.734	387.63
681.07	471.9
681.406	441.26
681.742	387.63
682.077	402.95
682.413	379.97
682.749	400.4
683.085	374.87
683.42	354.44
683.756	408.06
684.091	420.83
684.427	395.29
684.762	367.21
685.098	454.02
685.433	446.36
685.768	436.15
686.104	367.21
686.439	415.72
686.774	408.06
687.109	428.49
687.444	346.78
687.779	415.72
688.114	356.99
688.449	405.51
688.784	446.36
689.119	369.76
689.454	443.81
689.789	400.4
690.123	356.99
690.458	448.92
690.792	385.08
691.127	387.63
691.461	374.87
691.796	400.4
692.13	379.97
692.465	413.17
692.799	349.33
693.133	433.6
693.467	395.29
693.802	431.04
694.136	341.67
694.47	420.83
694.804	433.6
695.138	392.74
695.472	379.97
695.806	413.17
696.139	349.33
696.473	438.7
696.807	448.92
697.141	466.79
697.474	469.34
697.808	477
698.141	425.94
698.475	369.76
698.808	382.53
699.142	395.29
699.475	418.28
699.808	397.85
700.142	359.55
700.475	351.89
700.808	448.92
701.141	461.68
701.474	471.9
701.807	415.72
702.14	433.6
702.473	400.4
702.806	410.62
703.139	400.4
703.472	433.6
703.804	418.28
704.137	425.94
704.47	415.72
704.802	410.62
705.135	362.1
705.467	390.19
705.8	418.28
706.132	377.42
706.464	349.33
706.797	377.42
707.129	374.87
707.461	364.65
707.793	405.51
708.125	461.68
708.457	390.19
708.789	454.02
709.121	443.81
709.453	433.6
709.785	441.26
710.117	405.51
710.449	382.53
710.781	402.95
711.112	377.42
711.444	405.51
711.775	356.99
712.107	387.63
712.438	408.06
712.77	415.72
713.101	418.28
713.433	344.23
713.764	420.83
714.095	390.19
714.426	423.38
714.757	456.58
715.089	382.53
715.42	477
715.751	385.08
716.082	387.63
716.412	413.17
716.743	413.17
717.074	433.6
717.405	408.06
717.736	420.83
718.066	402.95
718.397	413.17
718.727	438.7
719.058	405.51
719.388	379.97
719.719	413.17
720.049	454.02
720.38	390.19
720.71	423.38
721.04	405.51
721.37	397.85
721.7	459.13
722.031	374.87
722.361	423.38
722.691	428.49
723.021	420.83
723.35	415.72
723.68	418.28
724.01	397.85
724.34	415.72
724.67	354.44
724.999	392.74
725.329	369.76
725.658	456.58
725.988	397.85
726.317	418.28
726.647	443.81
726.976	456.58
727.306	428.49
727.635	349.33
727.964	400.4
728.293	356.99
728.622	397.85
728.952	405.51
729.281	400.4
729.61	374.87
729.939	420.83
730.267	436.15
730.596	448.92
730.925	410.62
731.254	387.63
731.583	431.04
731.911	433.6
732.24	425.94
732.568	395.29
732.897	420.83
733.225	374.87
733.554	377.42
733.882	428.49
734.21	413.17
734.539	451.47
734.867	372.31
735.195	405.51
735.523	420.83
735.851	408.06
736.179	466.79
736.507	377.42
736.835	392.74
737.163	395.29
737.491	436.15
737.819	402.95
738.147	379.97
738.474	392.74
738.802	459.13
739.13	443.81
739.457	413.17
739.785	425.94
740.112	392.74
740.44	359.55
740.767	382.53
741.094	377.42
741.422	448.92
741.749	377.42
742.076	436.15
742.403	387.63
742.73	390.19
743.057	415.72
743.384	359.55
743.711	356.99
744.038	374.87
744.365	431.04
744.692	413.17
745.018	390.19
745.345	405.51
745.672	367.21
745.998	364.65
746.325	382.53
746.651	400.4
746.978	423.38
747.304	451.47
747.631	413.17
747.957	356.99
748.283	374.87
748.61	377.42
748.936	354.44
749.262	402.95
749.588	288.05
749.914	387.63
750.24	410.62
750.566	387.63
750.892	387.63
751.218	390.19
751.543	400.4
751.869	395.29
752.195	354.44
752.521	385.08
752.846	477
753.172	436.15
753.497	387.63
753.823	448.92
754.148	479.56
754.473	392.74
754.799	402.95
755.124	374.87
755.449	425.94
755.774	405.51
756.1	433.6
756.425	387.63
756.75	459.13
757.075	484.66
757.4	607.23
757.724	448.92
758.049	359.55
758.374	349.33
758.699	397.85
759.024	413.17
759.348	456.58
759.673	354.44
759.997	461.68
760.322	461.68
760.646	382.53
760.971	423.38
761.295	372.31
761.619	374.87
761.944	425.94
762.268	464.24
762.592	469.34
762.916	397.85
763.24	367.21
763.564	433.6
763.888	454.02
764.212	471.9
764.536	456.58
764.86	522.96
765.184	484.66
765.508	535.73
765.831	471.9
766.155	658.29
766.478	497.43
766.802	484.66
767.126	515.3
767.449	568.92
767.772	530.62
768.096	525.52
768.419	556.16
768.742	530.62
769.066	571.48
769.389	604.67
769.712	658.29
770.035	709.36
770.358	701.7
770.681	691.49
771.004	742.55
771.327	775.75
771.65	775.75
771.972	770.64
772.295	811.5
772.618	867.67
772.941	839.58
773.263	860.01
773.586	939.16
773.908	985.13
774.231	1043.85
774.553	1033.64
774.875	1171.52
775.198	1135.77
775.52	1031.09
775.842	982.57
776.164	1089.81
776.487	1015.77
776.809	1028.53
777.131	1130.67
777.453	1110.24
777.775	1092.37
778.096	1153.65
778.418	1179.18
778.74	1179.18
779.062	1174.08
779.384	1304.3
779.705	1411.54
780.027	1465.16
780.348	1424.31
780.67	1442.18
780.991	1577.51
781.313	1646.45
781.634	1715.39
781.955	1592.83
782.277	1462.61
782.598	1592.83
782.919	1620.92
783.24	1620.92
783.561	1723.05
783.882	1671.98
784.203	1687.3
784.524	1705.18
784.845	1740.93
785.166	1781.78
785.487	1664.32
785.807	1723.05
786.128	1656.66
786.449	1756.25
786.769	1791.99
787.09	1825.19
787.41	2001.37
787.731	2238.83
788.051	2310.33
788.372	2394.59
788.692	2430.34
789.012	2427.78
789.332	2381.82
789.653	2402.25
789.973	2670.35
790.293	2499.28
790.613	2231.17
790.933	2259.26
791.253	2366.5
791.573	2343.52
791.893	2277.13
792.212	2333.31
792.532	2361.4
792.852	2246.49
793.171	2139.25
793.491	2044.78
793.811	2083.08
794.13	1957.96
794.45	1901.79
794.769	1853.27
795.088	1835.4
795.408	1855.83
795.727	1919.66
796.046	1855.83
796.365	1945.2
796.684	1960.52
797.004	1868.59
797.323	2070.31
797.642	2466.08
797.96	2527.37
798.279	2555.45
798.598	2514.6
798.917	2338.42
799.236	2256.71
799.554	2139.25
799.873	1942.64
800.192	2024.35
800.51	2146.91
800.829	2238.83
801.147	2052.44
801.466	1993.71
801.784	1988.6
802.102	1912
802.421	2121.38
802.739	2438
803.057	2320.54
803.375	2011.58
803.693	2116.27
804.011	2415.02
804.329	2481.4
804.647	2325.65
804.965	2356.29
805.283	2233.73
805.601	2037.12
805.918	1978.39
806.236	1797.1
806.554	1781.78
806.871	1837.95
807.189	1991.16
807.507	2139.25
807.824	2075.42
808.141	1868.59
808.459	1789.44
808.776	1559.64
809.093	1521.33
809.411	1396.22
809.728	1483.03
810.045	1574.96
810.362	1526.44
810.679	1488.14
810.996	1444.73
811.313	1513.67
811.63	1457.5
811.947	1368.13
812.264	1352.81
812.58	1337.49
812.897	1288.98
813.214	1271.1
813.53	1237.91
813.847	1383.45
814.163	1411.54
814.48	1329.83
814.796	1286.42
815.113	1319.62
815.429	1199.61
815.745	1212.38
816.061	1288.98
816.378	1151.09
816.694	1089.81
817.01	1143.43
817.326	1163.86
817.642	1140.88
817.958	1046.41
818.274	954.48
818.59	931.5
818.905	957.04
819.221	995.34
819.537	1046.41
819.852	980.02
820.168	1003
820.484	939.16
820.799	1015.77
821.115	974.91
821.43	921.29
821.745	1008.11
822.061	880.44
822.376	852.35
822.691	903.42
823.006	911.08
823.322	826.82
823.637	768.09
823.952	867.67
824.267	842.14
824.582	757.87
824.897	854.9
825.211	783.41
825.526	762.98
825.841	755.32
826.156	727.23
826.47	811.5
826.785	750.21
827.1	688.93
827.414	681.27
827.729	793.62
828.043	709.36
828.357	775.75
828.672	683.83
828.986	627.65
829.3	597.01
829.614	663.4
829.929	625.1
830.243	681.27
830.557	627.65
830.871	561.26
831.185	517.86
831.499	533.18
831.812	494.88
832.126	530.62
832.44	579.14
832.754	576.58
833.067	579.14
833.381	673.61
833.695	660.85
834.008	637.87
834.322	622.55
834.635	571.48
834.948	594.46
835.262	637.87
835.575	515.3
835.888	563.82
836.201	548.5
836.515	614.89
836.828	525.52
837.141	510.2
837.454	507.64
837.767	520.41
838.08	471.9
838.392	505.09
838.705	466.79
839.018	454.02
839.331	415.72
839.643	400.4
839.956	413.17
840.269	433.6
840.581	479.56
840.894	510.2
841.206	482.11
841.519	627.65
841.831	464.24
842.143	477
842.455	425.94
842.768	431.04
843.08	377.42
843.392	413.17
843.704	464.24
844.016	464.24
844.328	507.64
844.64	436.15
844.952	408.06
845.263	448.92
845.575	494.88
845.887	382.53
846.199	469.34
846.51	446.36
846.822	410.62
847.133	428.49
847.445	408.06
847.756	415.72
848.068	402.95
848.379	436.15
848.69	456.58
849.002	395.29
849.313	367.21
849.624	362.1
849.935	443.81
850.246	448.92
850.557	402.95
850.868	405.51
851.179	428.49
851.49	418.28
851.801	446.36
852.112	413.17
852.422	397.85
852.733	466.79
853.044	441.26
853.354	397.85
853.665	331.46
853.975	390.19
854.286	402.95
854.596	395.29
854.906	415.72
855.217	382.53
855.527	441.26
855.837	469.34
856.147	464.24
856.458	459.13
856.768	387.63
857.078	369.76
857.388	441.26
857.698	387.63
858.007	410.62
858.317	374.87
858.627	410.62
858.937	405.51
859.246	461.68
859.556	451.47
859.866	413.17
860.175	431.04
860.485	397.85
860.794	318.69
861.104	354.44
861.413	367.21
861.722	354.44
862.032	390.19
862.341	395.29
862.65	351.89
862.959	400.4
863.268	397.85
863.577	369.76
863.886	413.17
864.195	377.42
864.504	461.68
864.813	431.04
865.122	354.44
865.43	469.34
865.739	385.08
866.048	354.44
866.356	359.55
866.665	367.21
866.973	308.48
867.282	408.06
867.59	402.95
867.899	344.23
868.207	359.55
868.515	364.65
868.823	405.51
869.132	362.1
869.44	387.63
869.748	451.47
870.056	443.81
870.364	433.6
870.672	341.67
870.98	431.04
871.288	390.19
871.595	402.95
871.903	382.53
872.211	428.49
872.518	415.72
872.826	502.54
873.134	397.85
873.441	402.95
873.749	385.08
874.056	377.42
874.363	364.65
874.671	425.94
874.978	367.21
875.285	387.63
875.592	379.97
875.9	372.31
876.207	423.38
876.514	405.51
876.821	339.12
877.128	354.44
877.435	392.74
877.741	413.17
878.048	372.31
878.355	369.76
878.662	413.17
878.968	377.42
879.275	387.63
879.582	382.53
879.888	410.62
880.195	397.85
880.501	405.51
880.807	369.76
881.114	428.49
881.42	410.62
881.726	390.19
882.032	402.95
882.339	415.72
882.645	415.72
882.951	364.65
883.257	446.36
883.563	413.17
883.869	408.06
884.174	418.28
884.48	392.74
884.786	387.63
885.092	382.53
885.397	400.4
885.703	425.94
886.009	428.49
886.314	400.4
886.62	418.28
886.925	410.62
887.231	387.63
887.536	410.62
887.841	390.19
888.146	415.72
888.452	461.68
888.757	436.15
889.062	446.36
889.367	405.51
889.672	356.99
889.977	420.83
890.282	397.85
890.587	362.1
890.892	362.1
891.196	492.32
891.501	441.26
891.806	466.79
892.11	382.53
892.415	413.17
892.72	385.08
893.024	420.83
893.328	464.24
893.633	438.7
893.937	459.13
894.242	397.85
894.546	420.83
894.85	382.53
895.154	451.47
895.458	415.72
895.762	379.97
896.066	405.51
896.37	413.17
896.674	364.65
896.978	413.17
897.282	466.79
897.586	392.74
897.89	356.99
898.193	351.89
898.497	397.85
898.801	464.24
899.104	505.09
899.408	431.04
899.711	413.17
900.014	400.4
900.318	392.74
900.621	367.21
900.924	354.44
901.228	418.28
901.531	425.94
901.834	428.49
902.137	293.16
902.44	362.1
902.743	385.08
903.046	489.77
903.349	425.94
903.652	377.42
903.955	387.63
904.257	428.49
904.56	385.08
904.863	397.85
905.165	364.65
905.468	374.87
905.77	420.83
906.073	397.85
906.375	379.97
906.678	413.17
906.98	443.81
907.282	436.15
907.584	385.08
907.887	415.72
908.189	433.6
908.491	351.89
908.793	382.53
909.095	326.35
909.397	372.31
909.699	362.1
910.001	356.99
910.302	372.31
910.604	359.55
910.906	362.1
911.208	351.89
911.509	451.47
911.811	454.02
912.112	410.62
912.414	428.49
912.715	351.89
913.017	354.44
913.318	433.6
913.619	364.65
913.92	354.44
914.222	418.28
914.523	448.92
914.824	377.42
915.125	346.78
915.426	356.99
915.727	436.15
916.028	431.04
916.329	410.62
916.63	400.4
916.93	390.19
917.231	413.17
917.532	374.87
917.832	400.4
918.133	379.97
918.434	379.97
918.734	423.38
919.034	397.85
919.335	461.68
919.635	344.23
919.935	374.87
920.236	397.85
920.536	390.19
920.836	456.58
921.136	372.31
921.436	474.45
921.736	420.83
922.036	359.55
922.336	392.74
922.636	408.06
922.936	377.42
923.236	354.44
923.535	400.4
923.835	362.1
924.135	344.23
924.434	471.9
924.734	454.02
925.033	405.51
925.333	423.38
925.632	397.85
925.932	451.47
926.231	418.28
926.53	392.74
926.83	418.28
927.129	415.72
927.428	482.11
927.727	405.51
928.026	382.53
928.325	374.87
928.624	402.95
928.923	379.97
929.222	367.21
929.52	408.06
929.819	408.06
930.118	397.85
930.417	405.51
930.715	308.48
931.014	379.97
931.312	492.32
931.611	451.47
931.909	402.95
932.207	395.29
932.506	446.36
932.804	415.72
933.102	425.94
933.401	397.85
933.699	382.53
933.997	392.74
934.295	402.95
934.593	336.57
934.891	395.29
935.189	397.85
935.487	413.17
935.784	392.74
936.082	456.58
936.38	408.06
936.677	390.19
936.975	341.67
937.273	377.42
937.57	469.34
937.868	415.72
938.165	379.97
938.463	382.53
938.76	395.29
939.057	436.15
939.354	418.28
939.652	400.4
939.949	464.24
940.246	408.06
940.543	448.92
940.84	466.79
941.137	385.08
941.434	438.7
941.731	364.65
942.028	344.23
942.324	367.21
942.621	402.95
942.918	466.79
943.214	423.38
943.511	377.42
943.807	410.62
944.104	428.49
944.4	418.28
944.697	418.28
944.993	385.08
945.29	390.19
945.586	425.94
945.882	385.08
946.178	405.51
946.474	316.14
946.77	390.19
947.066	418.28
947.362	295.71
947.658	392.74
947.954	400.4
948.25	369.76
948.546	390.19
948.842	431.04
949.137	305.93
949.433	369.76
949.729	385.08
950.024	374.87
950.32	446.36
950.615	425.94
950.91	431.04
951.206	448.92
951.501	392.74
951.796	459.13
952.092	423.38
952.387	410.62
952.682	425.94
952.977	382.53
953.272	354.44
953.567	474.45
953.862	359.55
954.157	443.81
954.452	418.28
954.747	356.99
955.041	402.95
955.336	328.91
955.631	408.06
955.925	410.62
956.22	385.08
956.514	341.67
956.809	395.29
957.103	339.12
957.398	323.8
957.692	413.17
957.986	377.42
958.281	397.85
958.575	385.08
958.869	382.53
959.163	382.53
959.457	400.4
959.751	405.51
960.045	418.28
960.339	423.38
960.633	459.13
960.927	456.58
961.221	408.06
961.514	379.97
961.808	387.63
962.102	431.04
962.395	464.24
962.689	436.15
962.982	415.72
963.276	385.08
963.569	385.08
963.862	377.42
964.156	377.42
964.449	356.99
964.742	433.6
965.035	367.21
965.328	395.29
965.622	385.08
965.915	415.72
966.208	367.21
966.5	344.23
966.793	402.95
967.086	433.6
967.379	362.1
967.672	415.72
967.964	428.49
968.257	433.6
968.55	397.85
968.842	392.74
969.135	341.67
969.427	436.15
969.72	397.85
970.012	359.55
970.304	413.17
970.597	372.31
970.889	392.74
971.181	334.01
971.473	379.97
971.765	474.45
972.057	377.42
972.349	392.74
972.641	413.17
972.933	420.83
973.225	428.49
973.517	425.94
973.809	408.06
974.1	438.7
974.392	425.94
974.684	359.55
974.975	402.95
975.267	517.86
975.558	369.76
975.85	362.1
976.141	425.94
976.432	413.17
976.724	438.7
977.015	374.87
977.306	402.95
977.597	326.35
977.888	351.89
978.179	400.4
978.47	402.95
978.761	382.53
979.052	400.4
979.343	428.49
979.634	374.87
979.925	428.49
980.215	438.7
980.506	359.55
980.797	431.04
981.087	367.21
981.378	334.01
981.668	420.83
981.959	431.04
982.249	369.76
982.54	390.19
982.83	443.81
983.12	385.08
983.41	369.76
983.701	461.68
983.991	410.62
984.281	305.93
984.571	433.6
984.861	374.87
985.151	390.19
985.441	369.76
985.73	344.23
986.02	367.21
986.31	377.42
986.6	339.12
986.889	344.23
987.179	428.49
987.469	441.26
987.758	415.72
988.048	400.4
988.337	418.28
988.626	425.94
988.916	400.4
989.205	413.17
989.494	323.8
989.783	379.97
990.073	382.53
990.362	313.59
990.651	438.7
990.94	362.1
991.229	385.08
991.518	418.28
991.806	402.95
992.095	359.55
992.384	397.85
992.673	418.28
992.961	395.29
993.25	372.31
993.539	431.04
993.827	431.04
994.116	379.97
994.404	397.85
994.692	397.85
994.981	369.76
995.269	359.55
995.557	354.44
995.846	318.69
996.134	410.62
996.422	379.97
996.71	420.83
996.998	408.06
997.286	431.04
997.574	410.62
997.862	400.4
998.15	390.19
998.437	446.36
998.725	379.97
999.013	395.29
999.3	385.08
999.588	446.36
999.876	448.92
1000.163	446.36
1000.45	402.95
1000.738	428.49
1001.025	408.06
1001.313	420.83
1001.6	397.85
1001.887	362.1
1002.174	420.83
1002.461	471.9
1002.748	405.51
1003.036	410.62
1003.322	418.28
1003.609	390.19
1003.896	431.04
1004.183	397.85
1004.47	431.04
1004.757	354.44
1005.043	420.83
1005.33	374.87
1005.617	359.55
1005.903	395.29
1006.19	433.6
1006.476	359.55
1006.763	346.78
1007.049	308.48
1007.335	351.89
1007.622	311.03
1007.908	339.12
1008.194	425.94
1008.48	359.55
1008.766	377.42
1009.053	397.85
1009.339	390.19
1009.625	356.99
1009.91	405.51
1010.196	359.55
1010.482	461.68
1010.768	369.76
1011.054	395.29
1011.339	418.28
1011.625	415.72
1011.911	334.01
1012.196	344.23
1012.482	377.42
1012.767	431.04
1013.052	443.81
1013.338	311.03
1013.623	474.45
1013.908	385.08
1014.194	461.68
1014.479	387.63
1014.764	362.1
1015.049	356.99
1015.334	392.74
1015.619	379.97
1015.904	410.62
1016.189	331.46
1016.474	400.4
1016.758	408.06
1017.043	395.29
1017.328	456.58
1017.613	408.06
1017.897	374.87
1018.182	390.19
1018.466	402.95
1018.751	454.02
1019.035	395.29
1019.32	356.99
1019.604	374.87
1019.888	402.95
1020.172	402.95
1020.457	402.95
