Data from 2025-12-03_xpw_interference_micrometer_634_reference_FLMS141361__36__486.txt Node

Date: Wed Dec 03 15:52:22 MST 2025
User: james
Spectrometer: FLMS14136
Trigger mode: 0
Integration Time (sec): 1.000000E-1
Scans to average: 1
Electric dark correction enabled: true
Nonlinearity correction enabled: false
Boxcar width: 0
XAxis mode: Wavelengths
Number of Pixels in Spectrum: 2048
>>>>>Begin Spectral Data<<<<<
339.315	-153.04
339.697	-153.04
340.079	-153.04
340.461	-56.01
340.843	-40.69
341.225	-191.34
341.607	-130.06
341.989	-84.1
342.371	-96.87
342.752	-63.67
343.134	-53.46
343.516	-43.25
343.897	-71.33
344.279	30.8
344.661	61.44
345.042	46.12
345.423	20.59
345.805	79.31
346.186	135.49
346.567	196.77
346.949	163.58
347.33	186.56
347.711	178.9
348.092	283.58
348.473	161.02
348.854	283.58
349.235	237.62
349.616	296.35
349.997	260.6
350.378	260.6
350.758	281.03
351.139	304.01
351.52	298.9
351.9	347.42
352.281	372.95
352.661	403.59
353.042	332.1
353.422	436.79
353.803	401.04
354.183	403.59
354.563	362.74
354.943	418.91
355.324	413.81
355.704	411.25
356.084	444.45
356.464	424.02
356.844	375.51
357.224	388.27
357.603	344.87
357.983	413.81
358.363	388.27
358.743	332.1
359.122	365.29
359.502	388.27
359.882	383.17
360.261	273.37
360.641	367.85
361.02	362.74
361.399	334.65
361.779	326.99
362.158	383.17
362.537	401.04
362.916	337.21
363.296	357.63
363.675	370.4
364.054	342.31
364.433	385.72
364.812	349.97
365.19	375.51
365.569	334.65
365.948	398.49
366.327	388.27
366.705	309.12
367.084	347.42
367.463	296.35
367.841	319.33
368.22	370.4
368.598	329.55
368.977	339.76
369.355	370.4
369.733	380.61
370.111	309.12
370.49	329.55
370.868	304.01
371.246	309.12
371.624	395.93
372.002	390.83
372.38	334.65
372.758	301.46
373.136	349.97
373.513	398.49
373.891	411.25
374.269	378.06
374.646	393.38
375.024	314.23
375.402	390.83
375.779	390.83
376.157	401.04
376.534	367.85
376.911	347.42
377.289	349.97
377.666	339.76
378.043	360.19
378.42	390.83
378.797	370.4
379.175	395.93
379.552	380.61
379.929	344.87
380.305	355.08
380.682	293.8
381.059	357.63
381.436	411.25
381.813	383.17
382.189	403.59
382.566	378.06
382.943	314.23
383.319	263.16
383.696	306.56
384.072	372.95
384.448	344.87
384.825	367.85
385.201	326.99
385.577	411.25
385.953	408.7
386.329	418.91
386.706	380.61
387.082	360.19
387.458	344.87
387.834	380.61
388.209	365.29
388.585	319.33
388.961	365.29
389.337	342.31
389.713	334.65
390.088	306.56
390.464	344.87
390.839	367.85
391.215	347.42
391.59	306.56
391.966	360.19
392.341	388.27
392.716	329.55
393.092	319.33
393.467	416.36
393.842	416.36
394.217	370.4
394.592	390.83
394.967	360.19
395.342	357.63
395.717	424.02
396.092	349.97
396.467	324.44
396.841	365.29
397.216	365.29
397.591	306.56
397.965	365.29
398.34	383.17
398.714	326.99
399.089	372.95
399.463	380.61
399.838	372.95
400.212	378.06
400.586	452.11
400.961	429.13
401.335	360.19
401.709	362.74
402.083	375.51
402.457	339.76
402.831	334.65
403.205	385.72
403.579	398.49
403.953	413.81
404.326	380.61
404.7	342.31
405.074	357.63
405.447	375.51
405.821	342.31
406.195	390.83
406.568	357.63
406.942	360.19
407.315	408.7
407.688	362.74
408.062	355.08
408.435	375.51
408.808	360.19
409.181	436.79
409.554	418.91
409.927	372.95
410.3	352.53
410.673	349.97
411.046	398.49
411.419	411.25
411.792	408.7
412.165	326.99
412.537	395.93
412.91	375.51
413.283	344.87
413.655	334.65
414.028	339.76
414.4	398.49
414.773	372.95
415.145	301.46
415.517	398.49
415.889	457.21
416.262	436.79
416.634	372.95
417.006	372.95
417.378	462.32
417.75	464.87
418.122	383.17
418.494	469.98
418.866	378.06
419.238	406.15
419.609	332.1
419.981	378.06
420.353	360.19
420.725	324.44
421.096	393.38
421.468	372.95
421.839	452.11
422.211	395.93
422.582	403.59
422.953	418.91
423.325	393.38
423.696	390.83
424.067	347.42
424.438	347.42
424.809	385.72
425.18	357.63
425.551	365.29
425.922	401.04
426.293	319.33
426.664	357.63
427.035	457.21
427.406	388.27
427.776	447
428.147	411.25
428.518	426.57
428.888	378.06
429.259	395.93
429.629	352.53
429.999	406.15
430.37	429.13
430.74	421.47
431.11	439.34
431.481	357.63
431.851	413.81
432.221	411.25
432.591	304.01
432.961	375.51
433.331	472.53
433.701	475.09
434.071	334.65
434.441	388.27
434.81	444.45
435.18	385.72
435.55	388.27
435.919	393.38
436.289	416.36
436.658	383.17
437.028	424.02
437.397	365.29
437.767	367.85
438.136	372.95
438.505	403.59
438.875	413.81
439.244	444.45
439.613	390.83
439.982	383.17
440.351	347.42
440.72	383.17
441.089	388.27
441.458	452.11
441.827	418.91
442.196	411.25
442.564	500.62
442.933	431.68
443.302	441.89
443.67	452.11
444.039	390.83
444.407	431.68
444.776	416.36
445.144	452.11
445.513	462.32
445.881	416.36
446.249	380.61
446.617	388.27
446.986	416.36
447.354	421.47
447.722	434.23
448.09	360.19
448.458	436.79
448.826	475.09
449.194	365.29
449.561	337.21
449.929	385.72
450.297	388.27
450.665	378.06
451.032	398.49
451.4	370.4
451.767	408.7
452.135	482.75
452.502	421.47
452.87	385.72
453.237	339.76
453.604	390.83
453.971	421.47
454.339	421.47
454.706	367.85
455.073	441.89
455.44	431.68
455.807	406.15
456.174	385.72
456.541	385.72
456.908	452.11
457.274	406.15
457.641	434.23
458.008	347.42
458.374	362.74
458.741	421.47
459.108	362.74
459.474	429.13
459.841	421.47
460.207	469.98
460.573	411.25
460.94	352.53
461.306	472.53
461.672	452.11
462.038	416.36
462.404	390.83
462.771	367.85
463.137	421.47
463.503	360.19
463.868	413.81
464.234	385.72
464.6	447
464.966	457.21
465.332	401.04
465.697	357.63
466.063	398.49
466.429	398.49
466.794	424.02
467.16	467.43
467.525	457.21
467.89	370.4
468.256	467.43
468.621	449.55
468.986	444.45
469.351	306.56
469.717	370.4
470.082	500.62
470.447	360.19
470.812	357.63
471.177	395.93
471.542	349.97
471.906	416.36
472.271	365.29
472.636	406.15
473.001	378.06
473.365	385.72
473.73	352.53
474.094	372.95
474.459	408.7
474.823	416.36
475.188	352.53
475.552	383.17
475.917	383.17
476.281	401.04
476.645	485.3
477.009	413.81
477.373	403.59
477.737	408.7
478.101	385.72
478.465	367.85
478.829	398.49
479.193	464.87
479.557	411.25
479.921	424.02
480.284	441.89
480.648	395.93
481.012	393.38
481.375	441.89
481.739	408.7
482.102	375.51
482.466	464.87
482.829	449.55
483.193	441.89
483.556	365.29
483.919	388.27
484.282	393.38
484.645	462.32
485.009	492.96
485.372	434.23
485.735	385.72
486.098	378.06
486.46	416.36
486.823	380.61
487.186	326.99
487.549	418.91
487.912	426.57
488.274	444.45
488.637	406.15
488.999	462.32
489.362	360.19
489.724	454.66
490.087	398.49
490.449	403.59
490.811	411.25
491.174	406.15
491.536	347.42
491.898	360.19
492.26	383.17
492.622	416.36
492.984	469.98
493.346	431.68
493.708	416.36
494.07	378.06
494.432	378.06
494.794	406.15
495.155	411.25
495.517	372.95
495.879	457.21
496.24	375.51
496.602	434.23
496.963	426.57
497.325	464.87
497.686	439.34
498.048	439.34
498.409	413.81
498.77	393.38
499.131	424.02
499.492	416.36
499.854	452.11
500.215	388.27
500.576	403.59
500.937	367.85
501.298	444.45
501.658	380.61
502.019	401.04
502.38	347.42
502.741	339.76
503.101	429.13
503.462	365.29
503.823	421.47
504.183	395.93
504.543	390.83
504.904	492.96
505.264	459.77
505.625	416.36
505.985	383.17
506.345	390.83
506.705	395.93
507.065	395.93
507.426	357.63
507.786	454.66
508.146	406.15
508.505	418.91
508.865	439.34
509.225	314.23
509.585	454.66
509.945	469.98
510.304	518.5
510.664	472.53
511.024	429.13
511.383	434.23
511.743	411.25
512.102	352.53
512.462	436.79
512.821	380.61
513.18	413.81
513.539	406.15
513.899	434.23
514.258	408.7
514.617	492.96
514.976	378.06
515.335	418.91
515.694	439.34
516.053	380.61
516.412	431.68
516.771	426.57
517.129	380.61
517.488	395.93
517.847	390.83
518.205	441.89
518.564	424.02
518.922	349.97
519.281	398.49
519.639	390.83
519.998	426.57
520.356	408.7
520.714	411.25
521.073	411.25
521.431	431.68
521.789	403.59
522.147	395.93
522.505	385.72
522.863	416.36
523.221	401.04
523.579	449.55
523.937	439.34
524.295	449.55
524.652	352.53
525.01	339.76
525.368	385.72
525.725	457.21
526.083	421.47
526.44	398.49
526.798	380.61
527.155	429.13
527.513	475.09
527.87	375.51
528.227	421.47
528.584	431.68
528.942	406.15
529.299	398.49
529.656	393.38
530.013	365.29
530.37	447
530.727	367.85
531.083	385.72
531.44	424.02
531.797	403.59
532.154	480.19
532.511	416.36
532.867	408.7
533.224	454.66
533.58	398.49
533.937	380.61
534.293	393.38
534.65	447
535.006	469.98
535.362	416.36
535.718	436.79
536.075	480.19
536.431	505.73
536.787	452.11
537.143	418.91
537.499	444.45
537.855	370.4
538.211	393.38
538.567	406.15
538.923	401.04
539.278	357.63
539.634	385.72
539.99	413.81
540.345	408.7
540.701	457.21
541.056	406.15
541.412	352.53
541.767	388.27
542.123	380.61
542.478	372.95
542.833	398.49
543.188	429.13
543.544	411.25
543.899	482.75
544.254	459.77
544.609	416.36
544.964	421.47
545.319	360.19
545.674	431.68
546.029	436.79
546.383	439.34
546.738	380.61
547.093	344.87
547.447	380.61
547.802	403.59
548.157	411.25
548.511	349.97
548.866	378.06
549.22	416.36
549.574	372.95
549.929	406.15
550.283	401.04
550.637	401.04
550.991	388.27
551.345	454.66
551.699	408.7
552.053	431.68
552.407	406.15
552.761	441.89
553.115	408.7
553.469	436.79
553.823	385.72
554.176	408.7
554.53	441.89
554.884	431.68
555.237	715.11
555.591	383.17
555.944	416.36
556.298	390.83
556.651	416.36
557.005	406.15
557.358	393.38
557.711	515.94
558.064	447
558.417	454.66
558.771	495.51
559.124	485.3
559.477	418.91
559.83	398.49
560.182	398.49
560.535	357.63
560.888	378.06
561.241	411.25
561.594	426.57
561.946	390.83
562.299	406.15
562.651	436.79
563.004	411.25
563.356	495.51
563.709	457.21
564.061	388.27
564.413	408.7
564.766	421.47
565.118	403.59
565.47	398.49
565.822	390.83
566.174	390.83
566.526	370.4
566.878	418.91
567.23	416.36
567.582	406.15
567.934	365.29
568.286	360.19
568.638	360.19
568.989	439.34
569.341	393.38
569.693	418.91
570.044	334.65
570.396	411.25
570.747	421.47
571.098	480.19
571.45	421.47
571.801	408.7
572.152	365.29
572.504	426.57
572.855	416.36
573.206	401.04
573.557	441.89
573.908	413.81
574.259	378.06
574.61	347.42
574.961	365.29
575.311	355.08
575.662	475.09
576.013	447
576.364	406.15
576.714	403.59
577.065	342.31
577.415	367.85
577.766	393.38
578.116	393.38
578.467	378.06
578.817	403.59
579.167	452.11
579.518	398.49
579.868	383.17
580.218	416.36
580.568	383.17
580.918	457.21
581.268	426.57
581.618	378.06
581.968	347.42
582.318	347.42
582.668	337.21
583.017	342.31
583.367	426.57
583.717	462.32
584.066	452.11
584.416	349.97
584.765	367.85
585.115	383.17
585.464	390.83
585.814	370.4
586.163	411.25
586.512	401.04
586.862	424.02
587.211	452.11
587.56	441.89
587.909	426.57
588.258	395.93
588.607	418.91
588.956	380.61
589.305	365.29
589.654	434.23
590.002	393.38
590.351	411.25
590.7	395.93
591.048	372.95
591.397	378.06
591.746	342.31
592.094	406.15
592.443	408.7
592.791	383.17
593.139	349.97
593.488	357.63
593.836	424.02
594.184	390.83
594.532	383.17
594.88	523.6
595.228	390.83
595.576	429.13
595.924	355.08
596.272	429.13
596.62	406.15
596.968	380.61
597.316	426.57
597.664	424.02
598.011	395.93
598.359	378.06
598.706	298.9
599.054	408.7
599.402	429.13
599.749	449.55
600.096	380.61
600.444	349.97
600.791	375.51
601.138	380.61
601.485	431.68
601.833	380.61
602.18	375.51
602.527	342.31
602.874	390.83
603.221	426.57
603.568	416.36
603.914	398.49
604.261	383.17
604.608	426.57
604.955	403.59
605.301	469.98
605.648	447
605.995	403.59
606.341	413.81
606.688	383.17
607.034	401.04
607.38	388.27
607.727	418.91
608.073	378.06
608.419	362.74
608.765	452.11
609.112	452.11
609.458	426.57
609.804	395.93
610.15	403.59
610.496	441.89
610.842	390.83
611.187	398.49
611.533	449.55
611.879	388.27
612.225	360.19
612.57	365.29
612.916	375.51
613.261	401.04
613.607	421.47
613.952	436.79
614.298	357.63
614.643	424.02
614.989	457.21
615.334	355.08
615.679	388.27
616.024	436.79
616.369	429.13
616.714	429.13
617.059	378.06
617.404	334.65
617.749	352.53
618.094	426.57
618.439	416.36
618.784	436.79
619.129	388.27
619.473	408.7
619.818	347.42
620.163	403.59
620.507	454.66
620.852	390.83
621.196	426.57
621.54	431.68
621.885	378.06
622.229	424.02
622.573	370.4
622.918	372.95
623.262	355.08
623.606	339.76
623.95	403.59
624.294	380.61
624.638	393.38
624.982	444.45
625.326	375.51
625.67	321.89
626.013	380.61
626.357	439.34
626.701	342.31
627.044	413.81
627.388	362.74
627.731	436.79
628.075	395.93
628.418	347.42
628.762	469.98
629.105	383.17
629.448	316.78
629.792	337.21
630.135	380.61
630.478	385.72
630.821	398.49
631.164	390.83
631.507	380.61
631.85	344.87
632.193	362.74
632.536	441.89
632.879	355.08
633.221	401.04
633.564	413.81
633.907	424.02
634.249	482.75
634.592	413.81
634.935	406.15
635.277	418.91
635.619	429.13
635.962	406.15
636.304	372.95
636.646	469.98
636.989	441.89
637.331	421.47
637.673	393.38
638.015	352.53
638.357	411.25
638.699	390.83
639.041	365.29
639.383	342.31
639.725	362.74
640.067	431.68
640.408	380.61
640.75	321.89
641.092	403.59
641.433	357.63
641.775	390.83
642.116	411.25
642.458	388.27
642.799	408.7
643.141	395.93
643.482	360.19
643.823	385.72
644.164	401.04
644.506	395.93
644.847	424.02
645.188	416.36
645.529	393.38
645.87	411.25
646.211	475.09
646.552	418.91
646.893	393.38
647.233	393.38
647.574	334.65
647.915	362.74
648.255	401.04
648.596	372.95
648.937	408.7
649.277	434.23
649.618	413.81
649.958	431.68
650.298	449.55
650.639	406.15
650.979	459.77
651.319	342.31
651.659	436.79
651.999	426.57
652.339	388.27
652.679	375.51
653.019	439.34
653.359	352.53
653.699	357.63
654.039	426.57
654.379	454.66
654.719	503.18
655.058	372.95
655.398	431.68
655.737	464.87
656.077	449.55
656.416	395.93
656.756	362.74
657.095	401.04
657.435	418.91
657.774	436.79
658.113	459.77
658.452	418.91
658.792	385.72
659.131	431.68
659.47	301.46
659.809	406.15
660.148	452.11
660.487	362.74
660.826	365.29
661.164	352.53
661.503	362.74
661.842	349.97
662.181	367.85
662.519	459.77
662.858	362.74
663.196	383.17
663.535	406.15
663.873	395.93
664.212	411.25
664.55	439.34
664.888	403.59
665.226	388.27
665.565	398.49
665.903	615.52
666.241	472.53
666.579	418.91
666.917	436.79
667.255	339.76
667.593	370.4
667.931	452.11
668.268	380.61
668.606	383.17
668.944	370.4
669.282	416.36
669.619	406.15
669.957	395.93
670.294	372.95
670.632	416.36
670.969	413.81
671.307	378.06
671.644	383.17
671.981	352.53
672.318	439.34
672.656	378.06
672.993	421.47
673.33	362.74
673.667	429.13
674.004	390.83
674.341	406.15
674.678	349.97
675.015	429.13
675.351	436.79
675.688	411.25
676.025	403.59
676.362	421.47
676.698	406.15
677.035	418.91
677.371	355.08
677.708	378.06
678.044	380.61
678.38	378.06
678.717	426.57
679.053	408.7
679.389	319.33
679.725	360.19
680.062	395.93
680.398	383.17
680.734	416.36
681.07	411.25
681.406	390.83
681.742	316.78
682.077	326.99
682.413	439.34
682.749	349.97
683.085	349.97
683.42	436.79
683.756	344.87
684.091	436.79
684.427	416.36
684.762	447
685.098	403.59
685.433	388.27
685.768	393.38
686.104	321.89
686.439	337.21
686.774	388.27
687.109	365.29
687.444	362.74
687.779	372.95
688.114	385.72
688.449	385.72
688.784	332.1
689.119	413.81
689.454	469.98
689.789	469.98
690.123	459.77
690.458	418.91
690.792	454.66
691.127	395.93
691.461	426.57
691.796	411.25
692.13	380.61
692.465	337.21
692.799	362.74
693.133	347.42
693.467	349.97
693.802	452.11
694.136	436.79
694.47	306.56
694.804	365.29
695.138	436.79
695.472	421.47
695.806	357.63
696.139	411.25
696.473	408.7
696.807	393.38
697.141	395.93
697.474	406.15
697.808	421.47
698.141	344.87
698.475	372.95
698.808	413.81
699.142	372.95
699.475	416.36
699.808	444.45
700.142	403.59
700.475	378.06
700.808	408.7
701.141	454.66
701.474	393.38
701.807	367.85
702.14	355.08
702.473	390.83
702.806	408.7
703.139	352.53
703.472	416.36
703.804	367.85
704.137	375.51
704.47	406.15
704.802	332.1
705.135	352.53
705.467	370.4
705.8	367.85
706.132	454.66
706.464	469.98
706.797	398.49
707.129	411.25
707.461	390.83
707.793	413.81
708.125	447
708.457	411.25
708.789	355.08
709.121	370.4
709.453	449.55
709.785	393.38
710.117	421.47
710.449	408.7
710.781	385.72
711.112	411.25
711.444	378.06
711.775	329.55
712.107	395.93
712.438	388.27
712.77	355.08
713.101	395.93
713.433	390.83
713.764	337.21
714.095	349.97
714.426	413.81
714.757	418.91
715.089	436.79
715.42	426.57
715.751	390.83
716.082	429.13
716.412	426.57
716.743	439.34
717.074	326.99
717.405	390.83
717.736	421.47
718.066	367.85
718.397	370.4
718.727	360.19
719.058	395.93
719.388	406.15
719.719	380.61
720.049	365.29
720.38	370.4
720.71	337.21
721.04	362.74
721.37	406.15
721.7	454.66
722.031	401.04
722.361	416.36
722.691	418.91
723.021	378.06
723.35	383.17
723.68	401.04
724.01	378.06
724.34	370.4
724.67	406.15
724.999	357.63
725.329	411.25
725.658	441.89
725.988	349.97
726.317	311.67
726.647	395.93
726.976	370.4
727.306	360.19
727.635	355.08
727.964	357.63
728.293	367.85
728.622	436.79
728.952	395.93
729.281	383.17
729.61	411.25
729.939	416.36
730.267	469.98
730.596	429.13
730.925	398.49
731.254	431.68
731.583	362.74
731.911	355.08
732.24	370.4
732.568	401.04
732.897	406.15
733.225	449.55
733.554	362.74
733.882	344.87
734.21	370.4
734.539	393.38
734.867	360.19
735.195	316.78
735.523	388.27
735.851	278.48
736.179	372.95
736.507	406.15
736.835	395.93
737.163	401.04
737.491	457.21
737.819	398.49
738.147	372.95
738.474	429.13
738.802	365.29
739.13	393.38
739.457	390.83
739.785	424.02
740.112	370.4
740.44	337.21
740.767	311.67
741.094	421.47
741.422	367.85
741.749	349.97
742.076	395.93
742.403	459.77
742.73	395.93
743.057	370.4
743.384	375.51
743.711	413.81
744.038	447
744.365	383.17
744.692	349.97
745.018	372.95
745.345	383.17
745.672	332.1
745.998	393.38
746.325	411.25
746.651	388.27
746.978	408.7
747.304	352.53
747.631	357.63
747.957	401.04
748.283	380.61
748.61	411.25
748.936	434.23
749.262	426.57
749.588	370.4
749.914	365.29
750.24	426.57
750.566	372.95
750.892	388.27
751.218	416.36
751.543	408.7
751.869	424.02
752.195	378.06
752.521	370.4
752.846	362.74
753.172	390.83
753.497	424.02
753.823	385.72
754.148	447
754.473	362.74
754.799	401.04
755.124	418.91
755.449	424.02
755.774	388.27
756.1	413.81
756.425	436.79
756.75	401.04
757.075	459.77
757.4	503.18
757.724	383.17
758.049	464.87
758.374	441.89
758.699	385.72
759.024	395.93
759.348	424.02
759.673	469.98
759.997	421.47
760.322	418.91
760.646	362.74
760.971	418.91
761.295	375.51
761.619	390.83
761.944	385.72
762.268	260.6
762.592	390.83
762.916	398.49
763.24	467.43
763.564	459.77
763.888	398.49
764.212	487.85
764.536	416.36
764.86	434.23
765.184	447
765.508	482.75
765.831	459.77
766.155	715.11
766.478	454.66
766.802	454.66
767.126	528.71
767.449	538.92
767.772	518.5
768.096	572.12
768.419	597.65
768.742	587.44
769.066	648.72
769.389	664.04
769.712	697.23
770.035	607.86
770.358	674.25
770.681	684.46
771.004	697.23
771.327	738.09
771.65	740.64
771.972	784.05
772.295	809.58
772.618	773.83
772.941	824.9
773.263	689.57
773.586	883.63
773.908	906.61
774.231	985.76
774.553	1001.08
774.875	1062.36
775.198	1077.69
775.52	1021.51
775.842	980.66
776.164	1018.96
776.487	1049.6
776.809	1077.69
777.131	1075.13
777.453	1003.64
777.775	1072.58
778.096	1138.97
778.418	1174.71
778.74	1141.52
779.062	1100.67
779.384	1167.05
779.705	1287.06
780.027	1340.68
780.348	1486.23
780.67	1389.2
780.991	1453.03
781.313	1565.38
781.634	1590.91
781.955	1537.29
782.277	1412.18
782.598	1463.25
782.919	1585.81
783.24	1613.89
783.561	1649.64
783.882	1621.55
784.203	1693.05
784.524	1672.62
784.845	1672.62
785.166	1619
785.487	1685.39
785.807	1700.71
786.128	1634.32
786.449	1777.31
786.769	1751.78
787.09	1907.53
787.41	1956.05
787.731	2208.83
788.051	2280.33
788.372	2170.53
788.692	2272.67
789.012	2170.53
789.332	2167.98
789.653	2254.79
789.973	2476.94
790.293	2471.83
790.613	2201.17
790.933	2254.79
791.253	2313.52
791.573	2277.77
791.893	2167.98
792.212	2083.72
792.532	2221.6
792.852	2145
793.171	2081.16
793.491	1963.71
793.811	1933.07
794.13	1925.41
794.45	1825.82
794.769	1772.2
795.088	1784.97
795.408	1728.8
795.727	1884.55
796.046	1813.06
796.365	1833.48
796.684	1777.31
797.004	1739.01
797.323	1838.59
797.642	2318.63
797.96	2359.48
798.279	2367.14
798.598	2346.71
798.917	2387.57
799.236	2183.3
799.554	2050.52
799.873	1981.58
800.192	2027.54
800.51	2047.97
800.829	2022.43
801.147	1950.94
801.466	1958.6
801.784	1945.83
802.102	1950.94
802.421	2050.52
802.739	2259.9
803.057	2308.41
803.375	2037.76
803.693	2050.52
804.011	2313.52
804.329	2408
804.647	2280.33
804.965	2277.77
805.283	2078.61
805.601	2037.76
805.918	1853.91
806.236	1739.01
806.554	1759.44
806.871	1782.42
807.189	1971.37
807.507	2032.65
807.824	1943.28
808.141	1866.68
808.459	1532.19
808.776	1529.63
809.093	1463.25
809.411	1422.39
809.728	1435.16
810.045	1371.32
810.362	1399.41
810.679	1386.64
810.996	1345.79
811.313	1256.42
811.63	1356
811.947	1335.58
812.264	1287.06
812.58	1302.38
812.897	1253.87
813.214	1333.02
813.53	1373.88
813.847	1330.47
814.163	1348.34
814.48	1256.42
814.796	1241.1
815.113	1281.96
815.429	1289.62
815.745	1080.24
816.061	1070.02
816.378	1082.79
816.694	1052.15
817.01	962.78
817.326	1052.15
817.642	1123.65
817.958	1008.74
818.274	993.42
818.59	911.72
818.905	891.29
819.221	860.65
819.537	939.8
819.852	1013.85
820.168	1018.96
820.484	942.36
820.799	916.82
821.115	1070.02
821.43	896.4
821.745	863.2
822.061	855.54
822.376	837.67
822.691	827.45
823.006	847.88
823.322	786.6
823.637	699.79
823.952	702.34
824.267	727.87
824.582	799.37
824.897	763.62
825.211	796.81
825.526	755.96
825.841	681.91
826.156	768.73
826.47	664.04
826.785	717.66
827.1	681.91
827.414	704.89
827.729	712.55
828.043	666.59
828.357	641.06
828.672	582.33
828.986	595.1
829.3	587.44
829.614	651.27
829.929	546.58
830.243	533.82
830.557	559.35
830.871	587.44
831.185	531.26
831.499	556.8
831.812	574.67
832.126	592.54
832.44	674.25
832.754	584.88
833.067	674.25
833.381	503.18
833.695	641.06
834.008	692.13
834.322	605.31
834.635	589.99
834.948	579.78
835.262	546.58
835.575	464.87
835.888	523.6
836.201	551.69
836.515	567.01
836.828	475.09
837.141	393.38
837.454	421.47
837.767	482.75
838.08	429.13
838.392	510.84
838.705	475.09
839.018	421.47
839.331	416.36
839.643	492.96
839.956	452.11
840.269	398.49
840.581	436.79
840.894	424.02
841.206	462.32
841.519	656.38
841.831	482.75
842.143	454.66
842.455	418.91
842.768	457.21
843.08	467.43
843.392	380.61
843.704	454.66
844.016	467.43
844.328	393.38
844.64	444.45
844.952	436.79
845.263	418.91
845.575	393.38
845.887	367.85
846.199	485.3
846.51	413.81
846.822	360.19
847.133	393.38
847.445	406.15
847.756	362.74
848.068	388.27
848.379	365.29
848.69	393.38
849.002	403.59
849.313	367.85
849.624	416.36
849.935	439.34
850.246	378.06
850.557	418.91
850.868	421.47
851.179	372.95
851.49	390.83
851.801	390.83
852.112	436.79
852.422	431.68
852.733	383.17
853.044	395.93
853.354	390.83
853.665	439.34
853.975	411.25
854.286	388.27
854.596	372.95
854.906	416.36
855.217	421.47
855.527	370.4
855.837	375.51
856.147	383.17
856.458	347.42
856.768	365.29
857.078	370.4
857.388	444.45
857.698	439.34
858.007	355.08
858.317	326.99
858.627	360.19
858.937	408.7
859.246	441.89
859.556	424.02
859.866	380.61
860.175	339.76
860.485	426.57
860.794	406.15
861.104	378.06
861.413	355.08
861.722	385.72
862.032	408.7
862.341	434.23
862.65	421.47
862.959	362.74
863.268	418.91
863.577	452.11
863.886	444.45
864.195	426.57
864.504	424.02
864.813	426.57
865.122	416.36
865.43	337.21
865.739	413.81
866.048	388.27
866.356	383.17
866.665	337.21
866.973	339.76
867.282	459.77
867.59	467.43
867.899	347.42
868.207	421.47
868.515	390.83
868.823	390.83
869.132	347.42
869.44	385.72
869.748	334.65
870.056	334.65
870.364	329.55
870.672	401.04
870.98	393.38
871.288	444.45
871.595	408.7
871.903	339.76
872.211	365.29
872.518	378.06
872.826	526.16
873.134	416.36
873.441	344.87
873.749	326.99
874.056	344.87
874.363	413.81
874.671	326.99
874.978	408.7
875.285	365.29
875.592	439.34
875.9	418.91
876.207	385.72
876.514	375.51
876.821	362.74
877.128	365.29
877.435	385.72
877.741	429.13
878.048	444.45
878.355	337.21
878.662	383.17
878.968	357.63
879.275	421.47
879.582	403.59
879.888	370.4
880.195	393.38
880.501	375.51
880.807	329.55
881.114	418.91
881.42	411.25
881.726	424.02
882.032	357.63
882.339	401.04
882.645	452.11
882.951	431.68
883.257	403.59
883.563	334.65
883.869	360.19
884.174	411.25
884.48	416.36
884.786	367.85
885.092	424.02
885.397	334.65
885.703	416.36
886.009	378.06
886.314	441.89
886.62	367.85
886.925	372.95
887.231	388.27
887.536	390.83
887.841	375.51
888.146	385.72
888.452	393.38
888.757	401.04
889.062	370.4
889.367	403.59
889.672	326.99
889.977	362.74
890.282	406.15
890.587	411.25
890.892	352.53
891.196	390.83
891.501	398.49
891.806	372.95
892.11	390.83
892.415	485.3
892.72	385.72
893.024	436.79
893.328	434.23
893.633	365.29
893.937	337.21
894.242	378.06
894.546	439.34
894.85	413.81
895.154	383.17
895.458	334.65
895.762	406.15
896.066	390.83
896.37	398.49
896.674	393.38
896.978	357.63
897.282	357.63
897.586	421.47
897.89	406.15
898.193	378.06
898.497	452.11
898.801	411.25
899.104	416.36
899.408	480.19
899.711	436.79
900.014	401.04
900.318	380.61
900.621	332.1
900.924	395.93
901.228	403.59
901.531	344.87
901.834	344.87
902.137	321.89
902.44	388.27
902.743	332.1
903.046	372.95
903.349	347.42
903.652	408.7
903.955	421.47
904.257	403.59
904.56	342.31
904.863	360.19
905.165	441.89
905.468	406.15
905.77	383.17
906.073	398.49
906.375	416.36
906.678	375.51
906.98	357.63
907.282	408.7
907.584	344.87
907.887	362.74
908.189	378.06
908.491	360.19
908.793	360.19
909.095	393.38
909.397	429.13
909.699	431.68
910.001	411.25
910.302	344.87
910.604	413.81
910.906	365.29
911.208	436.79
911.509	309.12
911.811	393.38
912.112	398.49
912.414	372.95
912.715	326.99
913.017	309.12
913.318	388.27
913.619	360.19
913.92	362.74
914.222	431.68
914.523	416.36
914.824	349.97
915.125	385.72
915.426	383.17
915.727	365.29
916.028	429.13
916.329	339.76
916.63	403.59
916.93	413.81
917.231	393.38
917.532	355.08
917.832	390.83
918.133	413.81
918.434	306.56
918.734	413.81
919.034	403.59
919.335	406.15
919.635	337.21
919.935	426.57
920.236	357.63
920.536	342.31
920.836	326.99
921.136	375.51
921.436	607.86
921.736	477.64
922.036	388.27
922.336	334.65
922.636	342.31
922.936	372.95
923.236	408.7
923.535	406.15
923.835	393.38
924.135	378.06
924.434	362.74
924.734	411.25
925.033	383.17
925.333	352.53
925.632	390.83
925.932	393.38
926.231	406.15
926.53	388.27
926.83	383.17
927.129	426.57
927.428	383.17
927.727	362.74
928.026	492.96
928.325	393.38
928.624	424.02
928.923	378.06
929.222	367.85
929.52	385.72
929.819	383.17
930.118	439.34
930.417	452.11
930.715	390.83
931.014	286.14
931.312	454.66
931.611	426.57
931.909	411.25
932.207	360.19
932.506	380.61
932.804	429.13
933.102	388.27
933.401	370.4
933.699	370.4
933.997	375.51
934.295	421.47
934.593	406.15
934.891	411.25
935.189	462.32
935.487	459.77
935.784	385.72
936.082	367.85
936.38	375.51
936.677	360.19
936.975	375.51
937.273	413.81
937.57	452.11
937.868	475.09
938.165	416.36
938.463	398.49
938.76	444.45
939.057	385.72
939.354	418.91
939.652	347.42
939.949	319.33
940.246	367.85
940.543	362.74
940.84	390.83
941.137	355.08
941.434	344.87
941.731	462.32
942.028	332.1
942.324	355.08
942.621	480.19
942.918	362.74
943.214	406.15
943.511	413.81
943.807	418.91
944.104	380.61
944.4	388.27
944.697	398.49
944.993	398.49
945.29	380.61
945.586	349.97
945.882	370.4
946.178	406.15
946.474	416.36
946.77	319.33
947.066	355.08
947.362	401.04
947.658	362.74
947.954	337.21
948.25	370.4
948.546	347.42
948.842	421.47
949.137	347.42
949.433	370.4
949.729	380.61
950.024	426.57
950.32	365.29
950.615	416.36
950.91	385.72
951.206	421.47
951.501	408.7
951.796	408.7
952.092	388.27
952.387	388.27
952.682	355.08
952.977	385.72
953.272	380.61
953.567	441.89
953.862	344.87
954.157	413.81
954.452	393.38
954.747	319.33
955.041	355.08
955.336	408.7
955.631	398.49
955.925	398.49
956.22	431.68
956.514	403.59
956.809	385.72
957.103	416.36
957.398	349.97
957.692	436.79
957.986	270.82
958.281	403.59
958.575	408.7
958.869	319.33
959.163	321.89
959.457	403.59
959.751	347.42
960.045	304.01
960.339	411.25
960.633	413.81
960.927	413.81
961.221	447
961.514	326.99
961.808	416.36
962.102	408.7
962.395	383.17
962.689	347.42
962.982	385.72
963.276	383.17
963.569	406.15
963.862	352.53
964.156	431.68
964.449	408.7
964.742	352.53
965.035	413.81
965.328	413.81
965.622	411.25
965.915	395.93
966.208	378.06
966.5	296.35
966.793	383.17
967.086	406.15
967.379	378.06
967.672	406.15
967.964	436.79
968.257	378.06
968.55	372.95
968.842	416.36
969.135	393.38
969.427	372.95
969.72	390.83
970.012	383.17
970.304	469.98
970.597	362.74
970.889	403.59
971.181	380.61
971.473	321.89
971.765	355.08
972.057	352.53
972.349	418.91
972.641	406.15
972.933	337.21
973.225	398.49
973.517	383.17
973.809	380.61
974.1	378.06
974.392	431.68
974.684	431.68
974.975	378.06
975.267	349.97
975.558	344.87
975.85	380.61
976.141	395.93
976.432	441.89
976.724	477.64
977.015	383.17
977.306	441.89
977.597	439.34
977.888	390.83
978.179	378.06
978.47	383.17
978.761	436.79
979.052	401.04
979.343	416.36
979.634	319.33
979.925	347.42
980.215	418.91
980.506	401.04
980.797	424.02
981.087	380.61
981.378	401.04
981.668	411.25
981.959	406.15
982.249	337.21
982.54	355.08
982.83	355.08
983.12	416.36
983.41	439.34
983.701	411.25
983.991	362.74
984.281	362.74
984.571	367.85
984.861	395.93
985.151	334.65
985.441	347.42
985.73	418.91
986.02	395.93
986.31	378.06
986.6	372.95
986.889	390.83
987.179	324.44
987.469	347.42
987.758	431.68
988.048	383.17
988.337	406.15
988.626	388.27
988.916	457.21
989.205	380.61
989.494	342.31
989.783	362.74
990.073	375.51
990.362	357.63
990.651	314.23
990.94	367.85
991.229	388.27
991.518	439.34
991.806	360.19
992.095	352.53
992.384	349.97
992.673	411.25
992.961	375.51
993.25	406.15
993.539	403.59
993.827	344.87
994.116	411.25
994.404	398.49
994.692	383.17
994.981	367.85
995.269	408.7
995.557	365.29
995.846	426.57
996.134	357.63
996.422	365.29
996.71	385.72
996.998	418.91
997.286	372.95
997.574	390.83
997.862	383.17
998.15	398.49
998.437	385.72
998.725	398.49
999.013	370.4
999.3	367.85
999.588	365.29
999.876	403.59
1000.163	401.04
1000.45	416.36
1000.738	365.29
1001.025	316.78
1001.313	367.85
1001.6	401.04
1001.887	408.7
1002.174	372.95
1002.461	360.19
1002.748	431.68
1003.036	390.83
1003.322	441.89
1003.609	429.13
1003.896	406.15
1004.183	395.93
1004.47	385.72
1004.757	416.36
1005.043	447
1005.33	367.85
1005.617	434.23
1005.903	362.74
1006.19	403.59
1006.476	408.7
1006.763	390.83
1007.049	337.21
1007.335	378.06
1007.622	372.95
1007.908	334.65
1008.194	421.47
1008.48	365.29
1008.766	431.68
1009.053	469.98
1009.339	403.59
1009.625	401.04
1009.91	337.21
1010.196	436.79
1010.482	344.87
1010.768	403.59
1011.054	370.4
1011.339	360.19
1011.625	352.53
1011.911	326.99
1012.196	469.98
1012.482	385.72
1012.767	385.72
1013.052	372.95
1013.338	344.87
1013.623	319.33
1013.908	332.1
1014.194	342.31
1014.479	388.27
1014.764	378.06
1015.049	355.08
1015.334	367.85
1015.619	429.13
1015.904	370.4
1016.189	360.19
1016.474	357.63
1016.758	426.57
1017.043	395.93
1017.328	406.15
1017.613	375.51
1017.897	278.48
1018.182	337.21
1018.466	418.91
1018.751	378.06
1019.035	413.81
1019.32	395.93
1019.604	441.89
1019.888	344.87
1020.172	344.87
1020.457	344.87
