Data from 2025-12-03_xpw_interference_micrometer_634_dark_FLMS141361__49__199.txt Node

Date: Wed Dec 03 15:50:04 MST 2025
User: james
Spectrometer: FLMS14136
Trigger mode: 0
Integration Time (sec): 1.000000E-1
Scans to average: 1
Electric dark correction enabled: true
Nonlinearity correction enabled: false
Boxcar width: 0
XAxis mode: Wavelengths
Number of Pixels in Spectrum: 2048
>>>>>Begin Spectral Data<<<<<
339.315	-131.82
339.697	-131.82
340.079	-131.82
340.461	-175.23
340.843	-103.73
341.225	-116.5
341.607	-134.37
341.989	-144.59
342.371	-121.6
342.752	-106.28
343.134	-62.88
343.516	-50.11
343.897	21.38
344.279	36.7
344.661	39.26
345.042	159.27
345.423	31.6
345.805	72.45
346.186	172.03
346.567	87.77
346.949	115.86
347.33	179.69
347.711	230.76
348.092	195.01
348.473	212.89
348.854	294.6
349.235	289.49
349.616	284.38
349.997	358.43
350.378	235.87
350.758	281.83
351.139	299.7
351.52	348.22
351.9	429.93
352.281	424.82
352.661	340.56
353.042	417.16
353.422	373.75
353.803	414.6
354.183	386.52
354.563	360.98
354.943	353.32
355.324	452.91
355.704	401.84
356.084	399.28
356.464	391.62
356.844	422.26
357.224	381.41
357.603	442.69
357.983	470.78
358.363	386.52
358.743	422.26
359.122	473.33
359.502	340.56
359.882	429.93
360.261	343.11
360.641	396.73
361.02	391.62
361.399	376.3
361.779	297.15
362.158	355.88
362.537	338
362.916	376.3
363.296	399.28
363.675	383.96
364.054	348.22
364.433	373.75
364.812	368.64
365.19	307.36
365.569	412.05
365.948	338
366.327	330.34
366.705	373.75
367.084	368.64
367.463	412.05
367.841	302.26
368.22	360.98
368.598	366.09
368.977	261.4
369.355	381.41
369.733	452.91
370.111	366.09
370.49	312.47
370.868	335.45
371.246	304.81
371.624	396.73
372.002	414.6
372.38	345.66
372.758	343.11
373.136	312.47
373.513	378.86
373.891	458.01
374.269	419.71
374.646	401.84
375.024	376.3
375.402	358.43
375.779	378.86
376.157	368.64
376.534	432.48
376.911	383.96
377.289	409.5
377.666	327.79
378.043	373.75
378.42	350.77
378.797	335.45
379.175	404.39
379.552	389.07
379.929	320.13
380.305	340.56
380.682	378.86
381.059	330.34
381.436	378.86
381.813	263.96
382.189	401.84
382.566	414.6
382.943	381.41
383.319	327.79
383.696	378.86
384.072	391.62
384.448	386.52
384.825	350.77
385.201	343.11
385.577	358.43
385.953	350.77
386.329	378.86
386.706	360.98
387.082	366.09
387.458	409.5
387.834	340.56
388.209	353.32
388.585	396.73
388.961	429.93
389.337	378.86
389.713	412.05
390.088	437.59
390.464	399.28
390.839	383.96
391.215	394.18
391.59	391.62
391.966	383.96
392.341	440.14
392.716	366.09
393.092	452.91
393.467	417.16
393.842	355.88
394.217	327.79
394.592	343.11
394.967	350.77
395.342	363.54
395.717	399.28
396.092	389.07
396.467	432.48
396.841	355.88
397.216	350.77
397.591	404.39
397.965	363.54
398.34	345.66
398.714	327.79
399.089	355.88
399.463	279.28
399.838	422.26
400.212	338
400.586	373.75
400.961	445.25
401.335	325.24
401.709	345.66
402.083	389.07
402.457	330.34
402.831	320.13
403.205	373.75
403.579	363.54
403.953	343.11
404.326	401.84
404.7	427.37
405.074	406.94
405.447	412.05
405.821	406.94
406.195	412.05
406.568	373.75
406.942	394.18
407.315	350.77
407.688	404.39
408.062	432.48
408.435	376.3
408.808	345.66
409.181	396.73
409.554	447.8
409.927	330.34
410.3	383.96
410.673	312.47
411.046	373.75
411.419	353.32
411.792	335.45
412.165	366.09
412.537	366.09
412.91	381.41
413.283	432.48
413.655	409.5
414.028	389.07
414.4	445.25
414.773	396.73
415.145	422.26
415.517	348.22
415.889	338
416.262	376.3
416.634	404.39
417.006	412.05
417.378	394.18
417.75	399.28
418.122	383.96
418.494	412.05
418.866	391.62
419.238	355.88
419.609	419.71
419.981	432.48
420.353	391.62
420.725	391.62
421.096	465.67
421.468	424.82
421.839	458.01
422.211	320.13
422.582	386.52
422.953	386.52
423.325	432.48
423.696	373.75
424.067	437.59
424.438	404.39
424.809	383.96
425.18	330.34
425.551	381.41
425.922	404.39
426.293	345.66
426.664	396.73
427.035	452.91
427.406	371.2
427.776	452.91
428.147	460.57
428.518	445.25
428.888	432.48
429.259	335.45
429.629	406.94
429.999	424.82
430.37	417.16
430.74	422.26
431.11	378.86
431.481	389.07
431.851	432.48
432.221	450.35
432.591	366.09
432.961	368.64
433.331	394.18
433.701	437.59
434.071	419.71
434.441	373.75
434.81	363.54
435.18	396.73
435.55	424.82
435.919	435.03
436.289	360.98
436.658	437.59
437.028	389.07
437.397	406.94
437.767	401.84
438.136	406.94
438.505	368.64
438.875	373.75
439.244	404.39
439.613	376.3
439.982	450.35
440.351	470.78
440.72	366.09
441.089	412.05
441.458	353.32
441.827	399.28
442.196	429.93
442.564	491.21
442.933	442.69
443.302	406.94
443.67	368.64
444.039	409.5
444.407	312.47
444.776	422.26
445.144	424.82
445.513	445.25
445.881	435.03
446.249	406.94
446.617	437.59
446.986	478.44
447.354	463.12
447.722	447.8
448.09	383.96
448.458	353.32
448.826	460.57
449.194	452.91
449.561	455.46
449.929	396.73
450.297	391.62
450.665	363.54
451.032	422.26
451.4	427.37
451.767	429.93
452.135	350.77
452.502	391.62
452.87	391.62
453.237	455.46
453.604	419.71
453.971	437.59
454.339	473.33
454.706	432.48
455.073	442.69
455.44	455.46
455.807	327.79
456.174	412.05
456.541	437.59
456.908	509.08
457.274	406.94
457.641	348.22
458.008	427.37
458.374	470.78
458.741	470.78
459.108	455.46
459.474	424.82
459.841	394.18
460.207	409.5
460.573	353.32
460.94	442.69
461.306	458.01
461.672	412.05
462.038	373.75
462.404	396.73
462.771	432.48
463.137	465.67
463.503	417.16
463.868	381.41
464.234	358.43
464.6	391.62
464.966	478.44
465.332	404.39
465.697	396.73
466.063	389.07
466.429	427.37
466.794	429.93
467.16	452.91
467.525	332.9
467.89	404.39
468.256	475.89
468.621	378.86
468.986	437.59
469.351	406.94
469.717	509.08
470.082	355.88
470.447	450.35
470.812	429.93
471.177	460.57
471.542	399.28
471.906	378.86
472.271	445.25
472.636	424.82
473.001	424.82
473.365	445.25
473.73	404.39
474.094	437.59
474.459	381.41
474.823	468.23
475.188	412.05
475.552	401.84
475.917	383.96
476.281	406.94
476.645	414.6
477.009	391.62
477.373	432.48
477.737	355.88
478.101	399.28
478.465	376.3
478.829	427.37
479.193	396.73
479.557	440.14
479.921	399.28
480.284	445.25
480.648	414.6
481.012	373.75
481.375	368.64
481.739	358.43
482.102	350.77
482.466	335.45
482.829	442.69
483.193	373.75
483.556	399.28
483.919	391.62
484.282	404.39
484.645	376.3
485.009	366.09
485.372	363.54
485.735	350.77
486.098	412.05
486.46	394.18
486.823	378.86
487.186	468.23
487.549	396.73
487.912	468.23
488.274	360.98
488.637	383.96
488.999	394.18
489.362	394.18
489.724	424.82
490.087	406.94
490.449	386.52
490.811	371.2
491.174	498.87
491.536	386.52
491.898	419.71
492.26	419.71
492.622	396.73
492.984	455.46
493.346	368.64
493.708	353.32
494.07	353.32
494.432	419.71
494.794	422.26
495.155	373.75
495.517	350.77
495.879	427.37
496.24	383.96
496.602	432.48
496.963	483.55
497.325	468.23
497.686	429.93
498.048	360.98
498.409	391.62
498.77	478.44
499.131	378.86
499.492	358.43
499.854	442.69
500.215	417.16
500.576	368.64
500.937	363.54
501.298	409.5
501.658	391.62
502.019	440.14
502.38	419.71
502.741	427.37
503.101	358.43
503.462	381.41
503.823	424.82
504.183	399.28
504.543	368.64
504.904	404.39
505.264	401.84
505.625	340.56
505.985	389.07
506.345	322.68
506.705	427.37
507.065	422.26
507.426	381.41
507.786	424.82
508.146	376.3
508.505	440.14
508.865	396.73
509.225	417.16
509.585	493.76
509.945	414.6
510.304	409.5
510.664	394.18
511.024	440.14
511.383	452.91
511.743	442.69
512.102	378.86
512.462	391.62
512.821	389.07
513.18	442.69
513.539	452.91
513.899	455.46
514.258	437.59
514.617	445.25
514.976	442.69
515.335	376.3
515.694	412.05
516.053	486.1
516.412	381.41
516.771	432.48
517.129	419.71
517.488	401.84
517.847	452.91
518.205	376.3
518.564	366.09
518.922	445.25
519.281	432.48
519.639	427.37
519.998	348.22
520.356	440.14
520.714	442.69
521.073	422.26
521.431	429.93
521.789	394.18
522.147	455.46
522.505	355.88
522.863	376.3
523.221	368.64
523.579	458.01
523.937	498.87
524.295	414.6
524.652	389.07
525.01	455.46
525.368	429.93
525.725	470.78
526.083	437.59
526.44	394.18
526.798	417.16
527.155	373.75
527.513	409.5
527.87	465.67
528.227	381.41
528.584	414.6
528.942	401.84
529.299	378.86
529.656	427.37
530.013	366.09
530.37	417.16
530.727	432.48
531.083	465.67
531.44	378.86
531.797	419.71
532.154	373.75
532.511	427.37
532.867	422.26
533.224	373.75
533.58	429.93
533.937	422.26
534.293	394.18
534.65	478.44
535.006	422.26
535.362	414.6
535.718	442.69
536.075	417.16
536.431	435.03
536.787	325.24
537.143	432.48
537.499	452.91
537.855	435.03
538.211	427.37
538.567	445.25
538.923	432.48
539.278	498.87
539.634	473.33
539.99	491.21
540.345	488.65
540.701	412.05
541.056	429.93
541.412	386.52
541.767	378.86
542.123	378.86
542.478	437.59
542.833	470.78
543.188	429.93
543.544	506.53
543.899	475.89
544.254	460.57
544.609	424.82
544.964	404.39
545.319	396.73
545.674	432.48
546.029	353.32
546.383	437.59
546.738	447.8
547.093	378.86
547.447	406.94
547.802	360.98
548.157	409.5
548.511	409.5
548.866	368.64
549.22	409.5
549.574	412.05
549.929	389.07
550.283	440.14
550.637	409.5
550.991	440.14
551.345	391.62
551.699	414.6
552.053	338
552.407	460.57
552.761	450.35
553.115	396.73
553.469	406.94
553.823	327.79
554.176	419.71
554.53	312.47
554.884	404.39
555.237	685.26
555.591	465.67
555.944	429.93
556.298	417.16
556.651	401.84
557.005	429.93
557.358	432.48
557.711	491.21
558.064	460.57
558.417	463.12
558.771	532.06
559.124	442.69
559.477	404.39
559.83	450.35
560.182	432.48
560.535	496.31
560.888	509.08
561.241	386.52
561.594	389.07
561.946	335.45
562.299	422.26
562.651	414.6
563.004	409.5
563.356	409.5
563.709	445.25
564.061	345.66
564.413	396.73
564.766	399.28
565.118	424.82
565.47	381.41
565.822	409.5
566.174	389.07
566.526	409.5
566.878	442.69
567.23	386.52
567.582	450.35
567.934	460.57
568.286	358.43
568.638	427.37
568.989	404.39
569.341	465.67
569.693	419.71
570.044	486.1
570.396	394.18
570.747	437.59
571.098	422.26
571.45	389.07
571.801	396.73
572.152	417.16
572.504	394.18
572.855	422.26
573.206	424.82
573.557	429.93
573.908	394.18
574.259	463.12
574.61	442.69
574.961	406.94
575.311	491.21
575.662	432.48
576.013	437.59
576.364	458.01
576.714	404.39
577.065	414.6
577.415	437.59
577.766	409.5
578.116	440.14
578.467	437.59
578.817	478.44
579.167	404.39
579.518	440.14
579.868	414.6
580.218	312.47
580.568	383.96
580.918	432.48
581.268	363.54
581.618	376.3
581.968	417.16
582.318	360.98
582.668	360.98
583.017	391.62
583.367	378.86
583.717	358.43
584.066	406.94
584.416	396.73
584.765	391.62
585.115	429.93
585.464	506.53
585.814	455.46
586.163	368.64
586.512	468.23
586.862	404.39
587.211	355.88
587.56	412.05
587.909	399.28
588.258	414.6
588.607	376.3
588.956	460.57
589.305	452.91
589.654	465.67
590.002	427.37
590.351	394.18
590.7	435.03
591.048	452.91
591.397	412.05
591.746	435.03
592.094	406.94
592.443	473.33
592.791	458.01
593.139	463.12
593.488	417.16
593.836	409.5
594.184	381.41
594.532	409.5
594.88	458.01
595.228	486.1
595.576	445.25
595.924	473.33
596.272	404.39
596.62	419.71
596.968	355.88
597.316	330.34
597.664	396.73
598.011	355.88
598.359	358.43
598.706	414.6
599.054	376.3
599.402	450.35
599.749	424.82
600.096	419.71
600.444	452.91
600.791	373.75
601.138	465.67
601.485	386.52
601.833	409.5
602.18	376.3
602.527	427.37
602.874	417.16
603.221	363.54
603.568	424.82
603.914	429.93
604.261	435.03
604.608	465.67
604.955	386.52
605.301	376.3
605.648	460.57
605.995	442.69
606.341	422.26
606.688	358.43
607.034	399.28
607.38	450.35
607.727	396.73
608.073	371.2
608.419	409.5
608.765	465.67
609.112	435.03
609.458	394.18
609.804	452.91
610.15	389.07
610.496	396.73
610.842	391.62
611.187	360.98
611.533	406.94
611.879	399.28
612.225	317.58
612.57	488.65
612.916	432.48
613.261	404.39
613.607	424.82
613.952	363.54
614.298	440.14
614.643	391.62
614.989	401.84
615.334	345.66
615.679	432.48
616.024	358.43
616.369	391.62
616.714	498.87
617.059	373.75
617.404	437.59
617.749	373.75
618.094	381.41
618.439	399.28
618.784	320.13
619.129	450.35
619.473	422.26
619.818	483.55
620.163	409.5
620.507	412.05
620.852	445.25
621.196	360.98
621.54	386.52
621.885	404.39
622.229	417.16
622.573	366.09
622.918	406.94
623.262	409.5
623.606	422.26
623.95	455.46
624.294	435.03
624.638	435.03
624.982	404.39
625.326	401.84
625.67	417.16
626.013	366.09
626.357	417.16
626.701	391.62
627.044	360.98
627.388	368.64
627.731	348.22
628.075	368.64
628.418	417.16
628.762	442.69
629.105	435.03
629.448	429.93
629.792	414.6
630.135	389.07
630.478	432.48
630.821	366.09
631.164	404.39
631.507	350.77
631.85	332.9
632.193	345.66
632.536	378.86
632.879	376.3
633.221	442.69
633.564	391.62
633.907	404.39
634.249	445.25
634.592	435.03
634.935	406.94
635.277	412.05
635.619	483.55
635.962	437.59
636.304	452.91
636.646	465.67
636.989	386.52
637.331	376.3
637.673	424.82
638.015	432.48
638.357	422.26
638.699	455.46
639.041	429.93
639.383	412.05
639.725	381.41
640.067	422.26
640.408	391.62
640.75	394.18
641.092	401.84
641.433	401.84
641.775	396.73
642.116	386.52
642.458	432.48
642.799	417.16
643.141	458.01
643.482	450.35
643.823	419.71
644.164	396.73
644.506	419.71
644.847	424.82
645.188	378.86
645.529	322.68
645.87	435.03
646.211	378.86
646.552	381.41
646.893	470.78
647.233	396.73
647.574	371.2
647.915	409.5
648.255	437.59
648.596	419.71
648.937	419.71
649.277	422.26
649.618	394.18
649.958	480.99
650.298	409.5
650.639	409.5
650.979	473.33
651.319	417.16
651.659	399.28
651.999	409.5
652.339	475.89
652.679	396.73
653.019	322.68
653.359	368.64
653.699	358.43
654.039	458.01
654.379	404.39
654.719	417.16
655.058	491.21
655.398	378.86
655.737	470.78
656.077	442.69
656.416	409.5
656.756	404.39
657.095	424.82
657.435	389.07
657.774	412.05
658.113	414.6
658.452	340.56
658.792	406.94
659.131	358.43
659.47	432.48
659.809	483.55
660.148	376.3
660.487	445.25
660.826	424.82
661.164	417.16
661.503	360.98
661.842	394.18
662.181	427.37
662.519	376.3
662.858	414.6
663.196	376.3
663.535	422.26
663.873	389.07
664.212	455.46
664.55	417.16
664.888	368.64
665.226	396.73
665.565	409.5
665.903	606.11
666.241	455.46
666.579	435.03
666.917	378.86
667.255	383.96
667.593	437.59
667.931	447.8
668.268	437.59
668.606	409.5
668.944	366.09
669.282	348.22
669.619	389.07
669.957	414.6
670.294	419.71
670.632	440.14
670.969	424.82
671.307	373.75
671.644	381.41
671.981	394.18
672.318	409.5
672.656	463.12
672.993	437.59
673.33	391.62
673.667	340.56
674.004	373.75
674.341	391.62
674.678	338
675.015	371.2
675.351	396.73
675.688	412.05
676.025	396.73
676.362	368.64
676.698	386.52
677.035	419.71
677.371	360.98
677.708	409.5
678.044	399.28
678.38	460.57
678.717	414.6
679.053	371.2
679.389	470.78
679.725	394.18
680.062	429.93
680.398	432.48
680.734	381.41
681.07	419.71
681.406	360.98
681.742	389.07
682.077	401.84
682.413	376.3
682.749	465.67
683.085	401.84
683.42	404.39
683.756	406.94
684.091	353.32
684.427	478.44
684.762	422.26
685.098	417.16
685.433	389.07
685.768	371.2
686.104	353.32
686.439	360.98
686.774	358.43
687.109	409.5
687.444	442.69
687.779	432.48
688.114	406.94
688.449	419.71
688.784	440.14
689.119	371.2
689.454	381.41
689.789	404.39
690.123	404.39
690.458	440.14
690.792	391.62
691.127	463.12
691.461	376.3
691.796	412.05
692.13	414.6
692.465	340.56
692.799	355.88
693.133	399.28
693.467	401.84
693.802	432.48
694.136	371.2
694.47	414.6
694.804	389.07
695.138	432.48
695.472	427.37
695.806	350.77
696.139	442.69
696.473	414.6
696.807	401.84
697.141	383.96
697.474	386.52
697.808	422.26
698.141	406.94
698.475	427.37
698.808	355.88
699.142	399.28
699.475	437.59
699.808	424.82
700.142	435.03
700.475	414.6
700.808	399.28
701.141	332.9
701.474	432.48
701.807	376.3
702.14	350.77
702.473	429.93
702.806	432.48
703.139	391.62
703.472	378.86
703.804	350.77
704.137	429.93
704.47	406.94
704.802	360.98
705.135	378.86
705.467	381.41
705.8	450.35
706.132	445.25
706.464	406.94
706.797	368.64
707.129	401.84
707.461	373.75
707.793	483.55
708.125	435.03
708.457	378.86
708.789	335.45
709.121	396.73
709.453	427.37
709.785	473.33
710.117	332.9
710.449	399.28
710.781	460.57
711.112	399.28
711.444	371.2
711.775	437.59
712.107	378.86
712.438	378.86
712.77	383.96
713.101	422.26
713.433	435.03
713.764	394.18
714.095	389.07
714.426	406.94
714.757	412.05
715.089	432.48
715.42	417.16
715.751	353.32
716.082	373.75
716.412	360.98
716.743	376.3
717.074	383.96
717.405	401.84
717.736	468.23
718.066	391.62
718.397	455.46
718.727	391.62
719.058	427.37
719.388	389.07
719.719	412.05
720.049	432.48
720.38	360.98
720.71	445.25
721.04	399.28
721.37	391.62
721.7	391.62
722.031	396.73
722.361	412.05
722.691	378.86
723.021	386.52
723.35	376.3
723.68	455.46
724.01	371.2
724.34	358.43
724.67	358.43
724.999	389.07
725.329	437.59
725.658	468.23
725.988	353.32
726.317	394.18
726.647	373.75
726.976	409.5
727.306	394.18
727.635	432.48
727.964	376.3
728.293	401.84
728.622	409.5
728.952	406.94
729.281	427.37
729.61	368.64
729.939	371.2
730.267	378.86
730.596	343.11
730.925	383.96
731.254	435.03
731.583	468.23
731.911	363.54
732.24	401.84
732.568	417.16
732.897	447.8
733.225	353.32
733.554	432.48
733.882	360.98
734.21	424.82
734.539	399.28
734.867	396.73
735.195	366.09
735.523	386.52
735.851	483.55
736.179	338
736.507	363.54
736.835	378.86
737.163	404.39
737.491	386.52
737.819	394.18
738.147	447.8
738.474	424.82
738.802	412.05
739.13	399.28
739.457	396.73
739.785	348.22
740.112	412.05
740.44	386.52
740.767	414.6
741.094	435.03
741.422	399.28
741.749	350.77
742.076	322.68
742.403	371.2
742.73	427.37
743.057	404.39
743.384	366.09
743.711	452.91
744.038	483.55
744.365	465.67
744.692	391.62
745.018	373.75
745.345	422.26
745.672	391.62
745.998	468.23
746.325	447.8
746.651	330.34
746.978	442.69
747.304	340.56
747.631	368.64
747.957	373.75
748.283	417.16
748.61	427.37
748.936	355.88
749.262	419.71
749.588	463.12
749.914	435.03
750.24	399.28
750.566	404.39
750.892	465.67
751.218	396.73
751.543	412.05
751.869	368.64
752.195	345.66
752.521	458.01
752.846	419.71
753.172	381.41
753.497	383.96
753.823	419.71
754.148	394.18
754.473	414.6
754.799	483.55
755.124	437.59
755.449	404.39
755.774	406.94
756.1	371.2
756.425	406.94
756.75	383.96
757.075	320.13
757.4	491.21
757.724	447.8
758.049	389.07
758.374	366.09
758.699	396.73
759.024	404.39
759.348	419.71
759.673	414.6
759.997	419.71
760.322	363.54
760.646	371.2
760.971	440.14
761.295	396.73
761.619	409.5
761.944	350.77
762.268	340.56
762.592	368.64
762.916	404.39
763.24	383.96
763.564	412.05
763.888	360.98
764.212	460.57
764.536	376.3
764.86	391.62
765.184	381.41
765.508	417.16
765.831	419.71
766.155	598.45
766.478	488.65
766.802	422.26
767.126	363.54
767.449	404.39
767.772	406.94
768.096	440.14
768.419	452.91
768.742	442.69
769.066	381.41
769.389	383.96
769.712	450.35
770.035	396.73
770.358	386.52
770.681	452.91
771.004	406.94
771.327	363.54
771.65	383.96
771.972	389.07
772.295	391.62
772.618	389.07
772.941	422.26
773.263	396.73
773.586	419.71
773.908	412.05
774.231	440.14
774.553	422.26
774.875	383.96
775.198	465.67
775.52	447.8
775.842	424.82
776.164	360.98
776.487	366.09
776.809	432.48
777.131	404.39
777.453	401.84
777.775	432.48
778.096	440.14
778.418	422.26
778.74	437.59
779.062	396.73
779.384	366.09
779.705	373.75
780.027	432.48
780.348	353.32
780.67	409.5
780.991	358.43
781.313	406.94
781.634	350.77
781.955	478.44
782.277	373.75
782.598	343.11
782.919	348.22
783.24	396.73
783.561	419.71
783.882	396.73
784.203	406.94
784.524	435.03
784.845	399.28
785.166	383.96
785.487	338
785.807	394.18
786.128	376.3
786.449	394.18
786.769	401.84
787.09	373.75
787.41	432.48
787.731	404.39
788.051	391.62
788.372	422.26
788.692	391.62
789.012	437.59
789.332	412.05
789.653	386.52
789.973	366.09
790.293	422.26
790.613	383.96
790.933	386.52
791.253	368.64
791.573	383.96
791.893	386.52
792.212	381.41
792.532	353.32
792.852	435.03
793.171	391.62
793.491	394.18
793.811	396.73
794.13	422.26
794.45	427.37
794.769	417.16
795.088	468.23
795.408	419.71
795.727	427.37
796.046	394.18
796.365	419.71
796.684	363.54
797.004	409.5
797.323	368.64
797.642	442.69
797.96	399.28
798.279	432.48
798.598	378.86
798.917	409.5
799.236	350.77
799.554	389.07
799.873	340.56
800.192	348.22
800.51	368.64
800.829	422.26
801.147	409.5
801.466	391.62
801.784	368.64
802.102	516.74
802.421	335.45
802.739	358.43
803.057	422.26
803.375	419.71
803.693	452.91
804.011	475.89
804.329	378.86
804.647	406.94
804.965	419.71
805.283	371.2
805.601	483.55
805.918	409.5
806.236	338
806.554	460.57
806.871	371.2
807.189	360.98
807.507	378.86
807.824	429.93
808.141	450.35
808.459	360.98
808.776	463.12
809.093	394.18
809.411	373.75
809.728	399.28
810.045	376.3
810.362	447.8
810.679	432.48
810.996	458.01
811.313	409.5
811.63	445.25
811.947	465.67
812.264	432.48
812.58	404.39
812.897	358.43
813.214	514.19
813.53	432.48
813.847	401.84
814.163	391.62
814.48	358.43
814.796	412.05
815.113	360.98
815.429	401.84
815.745	391.62
816.061	404.39
816.378	406.94
816.694	391.62
817.01	381.41
817.326	401.84
817.642	401.84
817.958	419.71
818.274	396.73
818.59	366.09
818.905	391.62
819.221	452.91
819.537	419.71
819.852	435.03
820.168	480.99
820.484	447.8
820.799	412.05
821.115	348.22
821.43	350.77
821.745	348.22
822.061	368.64
822.376	371.2
822.691	389.07
823.006	396.73
823.322	383.96
823.637	368.64
823.952	355.88
824.267	383.96
824.582	409.5
824.897	340.56
825.211	394.18
825.526	394.18
825.841	381.41
826.156	363.54
826.47	437.59
826.785	406.94
827.1	432.48
827.414	406.94
827.729	478.44
828.043	419.71
828.357	455.46
828.672	391.62
828.986	399.28
829.3	409.5
829.614	480.99
829.929	396.73
830.243	366.09
830.557	399.28
830.871	338
831.185	399.28
831.499	399.28
831.812	394.18
832.126	358.43
832.44	332.9
832.754	338
833.067	358.43
833.381	391.62
833.695	383.96
834.008	396.73
834.322	419.71
834.635	307.36
834.948	422.26
835.262	422.26
835.575	465.67
835.888	378.86
836.201	435.03
836.515	422.26
836.828	427.37
837.141	447.8
837.454	378.86
837.767	366.09
838.08	366.09
838.392	338
838.705	424.82
839.018	389.07
839.331	383.96
839.643	383.96
839.956	389.07
840.269	376.3
840.581	486.1
840.894	427.37
841.206	340.56
841.519	557.59
841.831	404.39
842.143	371.2
842.455	394.18
842.768	381.41
843.08	406.94
843.392	427.37
843.704	417.16
844.016	422.26
844.328	381.41
844.64	419.71
844.952	389.07
845.263	317.58
845.575	391.62
845.887	366.09
846.199	363.54
846.51	399.28
846.822	389.07
847.133	412.05
847.445	378.86
847.756	386.52
848.068	312.47
848.379	368.64
848.69	442.69
849.002	389.07
849.313	378.86
849.624	335.45
849.935	343.11
850.246	340.56
850.557	363.54
850.868	414.6
851.179	343.11
851.49	355.88
851.801	391.62
852.112	350.77
852.422	412.05
852.733	417.16
853.044	373.75
853.354	412.05
853.665	437.59
853.975	376.3
854.286	338
854.596	386.52
854.906	417.16
855.217	429.93
855.527	394.18
855.837	394.18
856.147	358.43
856.458	404.39
856.768	424.82
857.078	432.48
857.388	360.98
857.698	378.86
858.007	386.52
858.317	360.98
858.627	427.37
858.937	427.37
859.246	302.26
859.556	404.39
859.866	406.94
860.175	358.43
860.485	399.28
860.794	401.84
861.104	401.84
861.413	429.93
861.722	338
862.032	368.64
862.341	401.84
862.65	371.2
862.959	348.22
863.268	440.14
863.577	348.22
863.886	432.48
864.195	386.52
864.504	465.67
864.813	394.18
865.122	368.64
865.43	406.94
865.739	378.86
866.048	355.88
866.356	381.41
866.665	409.5
866.973	383.96
867.282	394.18
867.59	363.54
867.899	381.41
868.207	440.14
868.515	381.41
868.823	422.26
869.132	412.05
869.44	360.98
869.748	419.71
870.056	432.48
870.364	391.62
870.672	401.84
870.98	447.8
871.288	475.89
871.595	366.09
871.903	406.94
872.211	360.98
872.518	363.54
872.826	345.66
873.134	332.9
873.441	399.28
873.749	371.2
874.056	345.66
874.363	343.11
874.671	386.52
874.978	332.9
875.285	386.52
875.592	378.86
875.9	381.41
876.207	409.5
876.514	422.26
876.821	399.28
877.128	399.28
877.435	381.41
877.741	424.82
878.048	437.59
878.355	373.75
878.662	368.64
878.968	417.16
879.275	401.84
879.582	450.35
879.888	376.3
880.195	363.54
880.501	353.32
880.807	340.56
881.114	373.75
881.42	373.75
881.726	401.84
882.032	422.26
882.339	355.88
882.645	366.09
882.951	406.94
883.257	381.41
883.563	391.62
883.869	399.28
884.174	389.07
884.48	394.18
884.786	345.66
885.092	366.09
885.397	394.18
885.703	399.28
886.009	406.94
886.314	429.93
886.62	399.28
886.925	376.3
887.231	363.54
887.536	424.82
887.841	378.86
888.146	440.14
888.452	419.71
888.757	386.52
889.062	412.05
889.367	394.18
889.672	383.96
889.977	404.39
890.282	414.6
890.587	396.73
890.892	391.62
891.196	386.52
891.501	417.16
891.806	386.52
892.11	409.5
892.415	396.73
892.72	419.71
893.024	424.82
893.328	399.28
893.633	409.5
893.937	343.11
894.242	353.32
894.546	386.52
894.85	312.47
895.154	373.75
895.458	447.8
895.762	432.48
896.066	435.03
896.37	483.55
896.674	355.88
896.978	368.64
897.282	422.26
897.586	366.09
897.89	412.05
898.193	429.93
898.497	394.18
898.801	417.16
899.104	480.99
899.408	458.01
899.711	373.75
900.014	437.59
900.318	450.35
900.621	378.86
900.924	455.46
901.228	406.94
901.531	399.28
901.834	450.35
902.137	440.14
902.44	386.52
902.743	389.07
903.046	363.54
903.349	455.46
903.652	373.75
903.955	399.28
904.257	389.07
904.56	391.62
904.863	350.77
905.165	340.56
905.468	424.82
905.77	399.28
906.073	401.84
906.375	432.48
906.678	406.94
906.98	376.3
907.282	363.54
907.584	463.12
907.887	376.3
908.189	409.5
908.491	394.18
908.793	396.73
909.095	447.8
909.397	429.93
909.699	394.18
910.001	391.62
910.302	383.96
910.604	404.39
910.906	445.25
911.208	447.8
911.509	350.77
911.811	432.48
912.112	427.37
912.414	350.77
912.715	409.5
913.017	386.52
913.318	366.09
913.619	435.03
913.92	386.52
914.222	404.39
914.523	450.35
914.824	383.96
915.125	427.37
915.426	470.78
915.727	417.16
916.028	404.39
916.329	360.98
916.63	455.46
916.93	394.18
917.231	378.86
917.532	396.73
917.832	442.69
918.133	458.01
918.434	366.09
918.734	327.79
919.034	440.14
919.335	350.77
919.635	409.5
919.935	383.96
920.236	424.82
920.536	378.86
920.836	432.48
921.136	383.96
921.436	565.25
921.736	401.84
922.036	368.64
922.336	401.84
922.636	432.48
922.936	371.2
923.236	432.48
923.535	348.22
923.835	452.91
924.135	371.2
924.434	406.94
924.734	396.73
925.033	409.5
925.333	401.84
925.632	396.73
925.932	435.03
926.231	358.43
926.53	363.54
926.83	437.59
927.129	399.28
927.428	417.16
927.727	358.43
928.026	391.62
928.325	429.93
928.624	424.82
928.923	409.5
929.222	409.5
929.52	360.98
929.819	378.86
930.118	401.84
930.417	389.07
930.715	419.71
931.014	396.73
931.312	486.1
931.611	483.55
931.909	435.03
932.207	399.28
932.506	332.9
932.804	483.55
933.102	340.56
933.401	401.84
933.699	409.5
933.997	422.26
934.295	406.94
934.593	381.41
934.891	335.45
935.189	424.82
935.487	401.84
935.784	317.58
936.082	274.17
936.38	378.86
936.677	381.41
936.975	391.62
937.273	399.28
937.57	394.18
937.868	353.32
938.165	401.84
938.463	452.91
938.76	424.82
939.057	386.52
939.354	386.52
939.652	381.41
939.949	376.3
940.246	381.41
940.543	409.5
940.84	363.54
941.137	350.77
941.434	343.11
941.731	493.76
942.028	378.86
942.324	366.09
942.621	412.05
942.918	412.05
943.214	371.2
943.511	414.6
943.807	378.86
944.104	366.09
944.4	366.09
944.697	381.41
944.993	417.16
945.29	389.07
945.586	373.75
945.882	363.54
946.178	315.02
946.474	409.5
946.77	404.39
947.066	340.56
947.362	401.84
947.658	358.43
947.954	404.39
948.25	376.3
948.546	360.98
948.842	401.84
949.137	419.71
949.433	371.2
949.729	383.96
950.024	386.52
950.32	360.98
950.615	302.26
950.91	371.2
951.206	350.77
951.501	389.07
951.796	417.16
952.092	386.52
952.387	422.26
952.682	406.94
952.977	424.82
953.272	480.99
953.567	404.39
953.862	330.34
954.157	353.32
954.452	386.52
954.747	292.04
955.041	381.41
955.336	406.94
955.631	355.88
955.925	440.14
956.22	366.09
956.514	386.52
956.809	409.5
957.103	389.07
957.398	363.54
957.692	348.22
957.986	445.25
958.281	424.82
958.575	404.39
958.869	401.84
959.163	450.35
959.457	452.91
959.751	371.2
960.045	422.26
960.339	468.23
960.633	394.18
960.927	534.61
961.221	417.16
961.514	386.52
961.808	358.43
962.102	381.41
962.395	381.41
962.689	409.5
962.982	419.71
963.276	389.07
963.569	345.66
963.862	391.62
964.156	297.15
964.449	394.18
964.742	409.5
965.035	424.82
965.328	376.3
965.622	567.81
965.915	406.94
966.208	399.28
966.5	401.84
966.793	353.32
967.086	447.8
967.379	419.71
967.672	317.58
967.964	401.84
968.257	401.84
968.55	383.96
968.842	383.96
969.135	440.14
969.427	422.26
969.72	381.41
970.012	406.94
970.304	473.33
970.597	378.86
970.889	391.62
971.181	350.77
971.473	343.11
971.765	340.56
972.057	404.39
972.349	422.26
972.641	396.73
972.933	396.73
973.225	391.62
973.517	396.73
973.809	371.2
974.1	404.39
974.392	383.96
974.684	371.2
974.975	383.96
975.267	417.16
975.558	381.41
975.85	396.73
976.141	427.37
976.432	396.73
976.724	358.43
977.015	371.2
977.306	414.6
977.597	399.28
977.888	394.18
978.179	419.71
978.47	427.37
978.761	396.73
979.052	394.18
979.343	442.69
979.634	358.43
979.925	358.43
980.215	353.32
980.506	376.3
980.797	391.62
981.087	338
981.378	338
981.668	381.41
981.959	399.28
982.249	350.77
982.54	389.07
982.83	353.32
983.12	396.73
983.41	404.39
983.701	350.77
983.991	399.28
984.281	458.01
984.571	383.96
984.861	376.3
985.151	360.98
985.441	353.32
985.73	394.18
986.02	427.37
986.31	404.39
986.6	366.09
986.889	376.3
987.179	330.34
987.469	363.54
987.758	376.3
988.048	429.93
988.337	409.5
988.626	360.98
988.916	391.62
989.205	435.03
989.494	404.39
989.783	353.32
990.073	396.73
990.362	366.09
990.651	391.62
990.94	396.73
991.229	335.45
991.518	373.75
991.806	399.28
992.095	381.41
992.384	363.54
992.673	358.43
992.961	412.05
993.25	440.14
993.539	376.3
993.827	442.69
994.116	307.36
994.404	401.84
994.692	394.18
994.981	414.6
995.269	360.98
995.557	383.96
995.846	427.37
996.134	376.3
996.422	371.2
996.71	360.98
996.998	366.09
997.286	389.07
997.574	429.93
997.862	345.66
998.15	396.73
998.437	363.54
998.725	378.86
999.013	460.57
999.3	440.14
999.588	373.75
999.876	447.8
1000.163	429.93
1000.45	286.94
1000.738	404.39
1001.025	325.24
1001.313	404.39
1001.6	440.14
1001.887	440.14
1002.174	473.33
1002.461	373.75
1002.748	396.73
1003.036	353.32
1003.322	358.43
1003.609	401.84
1003.896	412.05
1004.183	348.22
1004.47	386.52
1004.757	394.18
1005.043	396.73
1005.33	366.09
1005.617	363.54
1005.903	394.18
1006.19	396.73
1006.476	368.64
1006.763	363.54
1007.049	371.2
1007.335	304.81
1007.622	414.6
1007.908	373.75
1008.194	376.3
1008.48	335.45
1008.766	343.11
1009.053	447.8
1009.339	396.73
1009.625	343.11
1009.91	332.9
1010.196	417.16
1010.482	389.07
1010.768	383.96
1011.054	376.3
1011.339	355.88
1011.625	389.07
1011.911	389.07
1012.196	371.2
1012.482	429.93
1012.767	404.39
1013.052	450.35
1013.338	353.32
1013.623	406.94
1013.908	378.86
1014.194	427.37
1014.479	389.07
1014.764	391.62
1015.049	389.07
1015.334	440.14
1015.619	409.5
1015.904	389.07
1016.189	422.26
1016.474	419.71
1016.758	343.11
1017.043	338
1017.328	348.22
1017.613	345.66
1017.897	343.11
1018.182	315.02
1018.466	424.82
1018.751	378.86
1019.035	404.39
1019.32	412.05
1019.604	414.6
1019.888	401.84
1020.172	401.84
1020.457	401.84
