Data from 2025-12-03_xpw_interference_micrometer_634_dark_FLMS141361__79__229.txt Node

Date: Wed Dec 03 15:50:07 MST 2025
User: james
Spectrometer: FLMS14136
Trigger mode: 0
Integration Time (sec): 1.000000E-1
Scans to average: 1
Electric dark correction enabled: true
Nonlinearity correction enabled: false
Boxcar width: 0
XAxis mode: Wavelengths
Number of Pixels in Spectrum: 2048
>>>>>Begin Spectral Data<<<<<
339.315	-99.26
339.697	-99.26
340.079	-99.26
340.461	-135.01
340.843	-106.92
341.225	-78.84
341.607	-53.3
341.989	-68.62
342.371	-86.5
342.752	-76.28
343.134	-58.41
343.516	-55.86
343.897	-63.52
344.279	-25.21
344.661	36.07
345.042	48.83
345.423	61.6
345.805	97.35
346.186	82.03
346.567	127.99
346.949	112.67
347.33	161.18
347.711	173.95
348.092	186.72
348.473	250.55
348.854	232.68
349.235	219.91
349.616	350.13
349.997	309.28
350.378	332.26
350.758	281.19
351.139	327.15
351.52	370.56
351.9	401.2
352.281	419.07
352.661	332.26
353.042	360.35
353.422	370.56
353.803	365.45
354.183	309.28
354.563	454.82
354.943	426.73
355.324	375.67
355.704	332.26
356.084	304.17
356.464	378.22
356.844	419.07
357.224	373.11
357.603	362.9
357.983	362.9
358.363	365.45
358.743	370.56
359.122	444.61
359.502	347.58
359.882	362.9
360.261	373.11
360.641	370.56
361.02	373.11
361.399	411.41
361.779	398.65
362.158	347.58
362.537	350.13
362.916	403.75
363.296	319.49
363.675	334.81
364.054	401.2
364.433	309.28
364.812	301.62
365.19	263.32
365.569	347.58
365.948	365.45
366.327	334.81
366.705	306.72
367.084	362.9
367.463	299.06
367.841	373.11
368.22	373.11
368.598	309.28
368.977	347.58
369.355	350.13
369.733	342.47
370.111	327.15
370.49	263.32
370.868	339.92
371.246	345.03
371.624	337.37
372.002	324.6
372.38	322.04
372.758	401.2
373.136	398.65
373.513	385.88
373.891	388.43
374.269	357.79
374.646	329.7
375.024	370.56
375.402	378.22
375.779	293.96
376.157	324.6
376.534	329.7
376.911	411.41
377.289	314.38
377.666	322.04
378.043	454.82
378.42	380.77
378.797	355.24
379.175	342.47
379.552	362.9
379.929	342.47
380.305	324.6
380.682	327.15
381.059	378.22
381.436	403.75
381.813	337.37
382.189	398.65
382.566	401.2
382.943	345.03
383.319	347.58
383.696	329.7
384.072	355.24
384.448	273.53
384.825	378.22
385.201	365.45
385.577	360.35
385.953	424.18
386.329	362.9
386.706	334.81
387.082	286.3
387.458	278.64
387.834	383.33
388.209	347.58
388.585	286.3
388.961	396.09
389.337	365.45
389.713	357.79
390.088	370.56
390.464	380.77
390.839	383.33
391.215	373.11
391.59	360.35
391.966	390.99
392.341	370.56
392.716	362.9
393.092	306.72
393.467	370.56
393.842	385.88
394.217	375.67
394.592	347.58
394.967	345.03
395.342	334.81
395.717	393.54
396.092	347.58
396.467	370.56
396.841	408.86
397.216	388.43
397.591	352.69
397.965	329.7
398.34	324.6
398.714	314.38
399.089	355.24
399.463	373.11
399.838	360.35
400.212	383.33
400.586	383.33
400.961	373.11
401.335	347.58
401.709	380.77
402.083	378.22
402.457	444.61
402.831	388.43
403.205	421.63
403.579	442.05
403.953	345.03
404.326	301.62
404.7	314.38
405.074	355.24
405.447	350.13
405.821	322.04
406.195	368.01
406.568	291.4
406.942	419.07
407.315	345.03
407.688	459.93
408.062	314.38
408.435	347.58
408.808	360.35
409.181	342.47
409.554	334.81
409.927	383.33
410.3	375.67
410.673	416.52
411.046	327.15
411.419	357.79
411.792	373.11
412.165	383.33
412.537	342.47
412.91	345.03
413.283	350.13
413.655	362.9
414.028	419.07
414.4	403.75
414.773	465.03
415.145	355.24
415.517	342.47
415.889	426.73
416.262	383.33
416.634	311.83
417.006	357.79
417.378	378.22
417.75	362.9
418.122	342.47
418.494	337.37
418.866	319.49
419.238	355.24
419.609	342.47
419.981	398.65
420.353	365.45
420.725	345.03
421.096	429.29
421.468	424.18
421.839	431.84
422.211	393.54
422.582	352.69
422.953	390.99
423.325	352.69
423.696	339.92
424.067	296.51
424.438	316.94
424.809	329.7
425.18	403.75
425.551	345.03
425.922	370.56
426.293	304.17
426.664	329.7
427.035	373.11
427.406	357.79
427.776	406.31
428.147	419.07
428.518	390.99
428.888	429.29
429.259	380.77
429.629	347.58
429.999	396.09
430.37	385.88
430.74	472.69
431.11	421.63
431.481	390.99
431.851	383.33
432.221	347.58
432.591	365.45
432.961	401.2
433.331	406.31
433.701	383.33
434.071	411.41
434.441	408.86
434.81	447.16
435.18	311.83
435.55	352.69
435.919	406.31
436.289	385.88
436.658	347.58
437.028	424.18
437.397	347.58
437.767	408.86
438.136	342.47
438.505	385.88
438.875	408.86
439.244	477.8
439.613	385.88
439.982	332.26
440.351	368.01
440.72	385.88
441.089	322.04
441.458	413.97
441.827	378.22
442.196	380.77
442.564	465.03
442.933	408.86
443.302	373.11
443.67	396.09
444.039	350.13
444.407	327.15
444.776	426.73
445.144	378.22
445.513	393.54
445.881	350.13
446.249	421.63
446.617	362.9
446.986	339.92
447.354	378.22
447.722	309.28
448.09	365.45
448.458	444.61
448.826	472.69
449.194	421.63
449.561	396.09
449.929	342.47
450.297	393.54
450.665	421.63
451.032	390.99
451.4	393.54
451.767	388.43
452.135	347.58
452.502	345.03
452.87	421.63
453.237	408.86
453.604	488.01
453.971	447.16
454.339	408.86
454.706	421.63
455.073	390.99
455.44	378.22
455.807	444.61
456.174	436.95
456.541	365.45
456.908	380.77
457.274	436.95
457.641	398.65
458.008	393.54
458.374	413.97
458.741	355.24
459.108	362.9
459.474	350.13
459.841	368.01
460.207	439.5
460.573	368.01
460.94	357.79
461.306	360.35
461.672	442.05
462.038	396.09
462.404	442.05
462.771	406.31
463.137	375.67
463.503	339.92
463.868	413.97
464.234	375.67
464.6	403.75
464.966	393.54
465.332	380.77
465.697	424.18
466.063	342.47
466.429	408.86
466.794	393.54
467.16	380.77
467.525	342.47
467.89	362.9
468.256	467.59
468.621	378.22
468.986	411.41
469.351	388.43
469.717	419.07
470.082	393.54
470.447	411.41
470.812	436.95
471.177	380.77
471.542	390.99
471.906	490.57
472.271	452.27
472.636	434.39
473.001	411.41
473.365	477.8
473.73	431.84
474.094	380.77
474.459	388.43
474.823	390.99
475.188	475.25
475.552	375.67
475.917	370.56
476.281	375.67
476.645	396.09
477.009	383.33
477.373	424.18
477.737	380.77
478.101	454.82
478.465	388.43
478.829	322.04
479.193	413.97
479.557	401.2
479.921	403.75
480.284	380.77
480.648	383.33
481.012	316.94
481.375	396.09
481.739	403.75
482.102	319.49
482.466	373.11
482.829	390.99
483.193	342.47
483.556	424.18
483.919	370.56
484.282	398.65
484.645	401.2
485.009	383.33
485.372	429.29
485.735	355.24
486.098	390.99
486.46	396.09
486.823	413.97
487.186	370.56
487.549	388.43
487.912	350.13
488.274	403.75
488.637	444.61
488.999	365.45
489.362	293.96
489.724	421.63
490.087	388.43
490.449	419.07
490.811	403.75
491.174	413.97
491.536	380.77
491.898	390.99
492.26	416.52
492.622	403.75
492.984	403.75
493.346	339.92
493.708	436.95
494.07	413.97
494.432	434.39
494.794	388.43
495.155	462.48
495.517	383.33
495.879	424.18
496.24	413.97
496.602	447.16
496.963	457.37
497.325	439.5
497.686	393.54
498.048	465.03
498.409	362.9
498.77	413.97
499.131	385.88
499.492	357.79
499.854	413.97
500.215	357.79
500.576	403.75
500.937	311.83
501.298	365.45
501.658	429.29
502.019	380.77
502.38	352.69
502.741	434.39
503.101	413.97
503.462	442.05
503.823	406.31
504.183	413.97
504.543	419.07
504.904	388.43
505.264	365.45
505.625	388.43
505.985	368.01
506.345	396.09
506.705	411.41
507.065	398.65
507.426	385.88
507.786	411.41
508.146	434.39
508.505	406.31
508.865	360.35
509.225	393.54
509.585	406.31
509.945	383.33
510.304	408.86
510.664	406.31
511.024	434.39
511.383	403.75
511.743	398.65
512.102	350.13
512.462	449.71
512.821	352.69
513.18	398.65
513.539	411.41
513.899	370.56
514.258	370.56
514.617	398.65
514.976	390.99
515.335	431.84
515.694	380.77
516.053	436.95
516.412	360.35
516.771	390.99
517.129	390.99
517.488	329.7
517.847	362.9
518.205	355.24
518.564	360.35
518.922	380.77
519.281	426.73
519.639	383.33
519.998	403.75
520.356	457.37
520.714	416.52
521.073	449.71
521.431	388.43
521.789	383.33
522.147	398.65
522.505	408.86
522.863	431.84
523.221	390.99
523.579	398.65
523.937	406.31
524.295	390.99
524.652	339.92
525.01	396.09
525.368	421.63
525.725	383.33
526.083	457.37
526.44	421.63
526.798	373.11
527.155	411.41
527.513	434.39
527.87	393.54
528.227	350.13
528.584	388.43
528.942	385.88
529.299	352.69
529.656	368.01
530.013	442.05
530.37	421.63
530.727	383.33
531.083	408.86
531.44	380.77
531.797	345.03
532.154	390.99
532.511	388.43
532.867	339.92
533.224	431.84
533.58	383.33
533.937	442.05
534.293	390.99
534.65	431.84
535.006	477.8
535.362	362.9
535.718	401.2
536.075	442.05
536.431	467.59
536.787	378.22
537.143	403.75
537.499	329.7
537.855	426.73
538.211	403.75
538.567	385.88
538.923	398.65
539.278	350.13
539.634	388.43
539.99	449.71
540.345	439.5
540.701	406.31
541.056	350.13
541.412	396.09
541.767	370.56
542.123	431.84
542.478	373.11
542.833	436.95
543.188	332.26
543.544	390.99
543.899	406.31
544.254	327.15
544.609	378.22
544.964	383.33
545.319	406.31
545.674	403.75
546.029	431.84
546.383	355.24
546.738	393.54
547.093	393.54
547.447	373.11
547.802	462.48
548.157	459.93
548.511	454.82
548.866	398.65
549.22	362.9
549.574	355.24
549.929	401.2
550.283	388.43
550.637	345.03
550.991	403.75
551.345	383.33
551.699	339.92
552.053	375.67
552.407	316.94
552.761	388.43
553.115	454.82
553.469	467.59
553.823	332.26
554.176	370.56
554.53	462.48
554.884	393.54
555.237	623.34
555.591	434.39
555.944	426.73
556.298	421.63
556.651	388.43
557.005	365.45
557.358	347.58
557.711	398.65
558.064	416.52
558.417	309.28
558.771	424.18
559.124	426.73
559.477	457.37
559.83	429.29
560.182	355.24
560.535	490.57
560.888	368.01
561.241	393.54
561.594	396.09
561.946	362.9
562.299	406.31
562.651	472.69
563.004	408.86
563.356	383.33
563.709	378.22
564.061	459.93
564.413	365.45
564.766	411.41
565.118	357.79
565.47	278.64
565.822	380.77
566.174	347.58
566.526	416.52
566.878	380.77
567.23	416.52
567.582	426.73
567.934	421.63
568.286	424.18
568.638	401.2
568.989	388.43
569.341	373.11
569.693	385.88
570.044	459.93
570.396	345.03
570.747	416.52
571.098	470.14
571.45	357.79
571.801	350.13
572.152	388.43
572.504	357.79
572.855	299.06
573.206	334.81
573.557	401.2
573.908	360.35
574.259	416.52
574.61	411.41
574.961	485.46
575.311	503.33
575.662	380.77
576.013	419.07
576.364	447.16
576.714	378.22
577.065	360.35
577.415	396.09
577.766	390.99
578.116	388.43
578.467	370.56
578.817	421.63
579.167	352.69
579.518	416.52
579.868	411.41
580.218	431.84
580.568	370.56
580.918	373.11
581.268	398.65
581.618	360.35
581.968	370.56
582.318	431.84
582.668	373.11
583.017	375.67
583.367	431.84
583.717	375.67
584.066	385.88
584.416	470.14
584.765	378.22
585.115	452.27
585.464	337.37
585.814	459.93
586.163	345.03
586.512	319.49
586.862	375.67
587.211	436.95
587.56	401.2
587.909	413.97
588.258	436.95
588.607	434.39
588.956	408.86
589.305	452.27
589.654	434.39
590.002	388.43
590.351	434.39
590.7	345.03
591.048	370.56
591.397	378.22
591.746	401.2
592.094	470.14
592.443	403.75
592.791	426.73
593.139	452.27
593.488	411.41
593.836	293.96
594.184	327.15
594.532	403.75
594.88	503.33
595.228	380.77
595.576	408.86
595.924	350.13
596.272	383.33
596.62	355.24
596.968	365.45
597.316	401.2
597.664	421.63
598.011	352.69
598.359	408.86
598.706	408.86
599.054	447.16
599.402	355.24
599.749	429.29
600.096	396.09
600.444	396.09
600.791	408.86
601.138	393.54
601.485	452.27
601.833	388.43
602.18	444.61
602.527	385.88
602.874	429.29
603.221	365.45
603.568	401.2
603.914	454.82
604.261	434.39
604.608	406.31
604.955	403.75
605.301	345.03
605.648	408.86
605.995	408.86
606.341	398.65
606.688	439.5
607.034	342.47
607.38	339.92
607.727	360.35
608.073	390.99
608.419	421.63
608.765	439.5
609.112	467.59
609.458	350.13
609.804	339.92
610.15	355.24
610.496	380.77
610.842	408.86
611.187	447.16
611.533	477.8
611.879	439.5
612.225	345.03
612.57	411.41
612.916	429.29
613.261	444.61
613.607	345.03
613.952	424.18
614.298	421.63
614.643	416.52
614.989	347.58
615.334	398.65
615.679	393.54
616.024	360.35
616.369	388.43
616.714	396.09
617.059	370.56
617.404	408.86
617.749	339.92
618.094	390.99
618.439	316.94
618.784	370.56
619.129	314.38
619.473	390.99
619.818	411.41
620.163	406.31
620.507	421.63
620.852	357.79
621.196	416.52
621.54	426.73
621.885	362.9
622.229	380.77
622.573	426.73
622.918	337.37
623.262	398.65
623.606	439.5
623.95	390.99
624.294	337.37
624.638	380.77
624.982	431.84
625.326	447.16
625.67	390.99
626.013	370.56
626.357	350.13
626.701	447.16
627.044	398.65
627.388	350.13
627.731	370.56
628.075	390.99
628.418	439.5
628.762	360.35
629.105	365.45
629.448	375.67
629.792	426.73
630.135	452.27
630.478	385.88
630.821	378.22
631.164	301.62
631.507	327.15
631.85	431.84
632.193	439.5
632.536	411.41
632.879	383.33
633.221	370.56
633.564	442.05
633.907	345.03
634.249	334.81
634.592	347.58
634.935	380.77
635.277	396.09
635.619	337.37
635.962	429.29
636.304	360.35
636.646	406.31
636.989	342.47
637.331	385.88
637.673	436.95
638.015	421.63
638.357	393.54
638.699	383.33
639.041	373.11
639.383	378.22
639.725	345.03
640.067	378.22
640.408	383.33
640.75	378.22
641.092	360.35
641.433	368.01
641.775	477.8
642.116	449.71
642.458	385.88
642.799	350.13
643.141	350.13
643.482	388.43
643.823	406.31
644.164	413.97
644.506	457.37
644.847	365.45
645.188	401.2
645.529	383.33
645.87	459.93
646.211	429.29
646.552	383.33
646.893	385.88
647.233	347.58
647.574	426.73
647.915	426.73
648.255	424.18
648.596	368.01
648.937	324.6
649.277	393.54
649.618	327.15
649.958	383.33
650.298	396.09
650.639	398.65
650.979	393.54
651.319	436.95
651.659	373.11
651.999	413.97
652.339	401.2
652.679	373.11
653.019	296.51
653.359	362.9
653.699	378.22
654.039	411.41
654.379	454.82
654.719	380.77
655.058	429.29
655.398	442.05
655.737	365.45
656.077	373.11
656.416	380.77
656.756	390.99
657.095	319.49
657.435	388.43
657.774	327.15
658.113	401.2
658.452	380.77
658.792	390.99
659.131	365.45
659.47	370.56
659.809	416.52
660.148	472.69
660.487	426.73
660.826	383.33
661.164	396.09
661.503	408.86
661.842	411.41
662.181	398.65
662.519	439.5
662.858	362.9
663.196	334.81
663.535	406.31
663.873	411.41
664.212	375.67
664.55	393.54
664.888	408.86
665.226	408.86
665.565	360.35
665.903	541.64
666.241	378.22
666.579	385.88
666.917	370.56
667.255	324.6
667.593	355.24
667.931	355.24
668.268	429.29
668.606	355.24
668.944	322.04
669.282	332.26
669.619	301.62
669.957	390.99
670.294	403.75
670.632	444.61
670.969	403.75
671.307	373.11
671.644	380.77
671.981	459.93
672.318	459.93
672.656	403.75
672.993	362.9
673.33	411.41
673.667	329.7
674.004	365.45
674.341	408.86
674.678	393.54
675.015	370.56
675.351	406.31
675.688	434.39
676.025	390.99
676.362	388.43
676.698	396.09
677.035	378.22
677.371	413.97
677.708	339.92
678.044	370.56
678.38	352.69
678.717	309.28
679.053	332.26
679.389	396.09
679.725	365.45
680.062	413.97
680.398	345.03
680.734	388.43
681.07	454.82
681.406	368.01
681.742	347.58
682.077	393.54
682.413	426.73
682.749	413.97
683.085	319.49
683.42	350.13
683.756	342.47
684.091	439.5
684.427	388.43
684.762	406.31
685.098	385.88
685.433	419.07
685.768	360.35
686.104	401.2
686.439	362.9
686.774	408.86
687.109	314.38
687.444	329.7
687.779	350.13
688.114	352.69
688.449	350.13
688.784	373.11
689.119	278.64
689.454	380.77
689.789	362.9
690.123	426.73
690.458	434.39
690.792	416.52
691.127	390.99
691.461	439.5
691.796	347.58
692.13	388.43
692.465	352.69
692.799	380.77
693.133	406.31
693.467	385.88
693.802	365.45
694.136	398.65
694.47	375.67
694.804	342.47
695.138	327.15
695.472	357.79
695.806	401.2
696.139	373.11
696.473	373.11
696.807	319.49
697.141	390.99
697.474	406.31
697.808	362.9
698.141	378.22
698.475	365.45
698.808	365.45
699.142	352.69
699.475	347.58
699.808	375.67
700.142	306.72
700.475	352.69
700.808	368.01
701.141	426.73
701.474	424.18
701.807	268.42
702.14	398.65
702.473	360.35
702.806	373.11
703.139	403.75
703.472	457.37
703.804	334.81
704.137	380.77
704.47	424.18
704.802	327.15
705.135	444.61
705.467	378.22
705.8	360.35
706.132	378.22
706.464	385.88
706.797	454.82
707.129	421.63
707.461	365.45
707.793	385.88
708.125	352.69
708.457	393.54
708.789	380.77
709.121	419.07
709.453	342.47
709.785	352.69
710.117	434.39
710.449	355.24
710.781	375.67
711.112	327.15
711.444	383.33
711.775	439.5
712.107	424.18
712.438	403.75
712.77	406.31
713.101	388.43
713.433	355.24
713.764	332.26
714.095	362.9
714.426	388.43
714.757	390.99
715.089	378.22
715.42	413.97
715.751	368.01
716.082	385.88
716.412	375.67
716.743	411.41
717.074	434.39
717.405	385.88
717.736	419.07
718.066	337.37
718.397	375.67
718.727	368.01
719.058	383.33
719.388	365.45
719.719	370.56
720.049	413.97
720.38	375.67
720.71	388.43
721.04	408.86
721.37	365.45
721.7	393.54
722.031	413.97
722.361	426.73
722.691	396.09
723.021	316.94
723.35	393.54
723.68	378.22
724.01	347.58
724.34	327.15
724.67	421.63
724.999	368.01
725.329	385.88
725.658	411.41
725.988	380.77
726.317	375.67
726.647	401.2
726.976	327.15
727.306	350.13
727.635	339.92
727.964	378.22
728.293	406.31
728.622	370.56
728.952	406.31
729.281	375.67
729.61	431.84
729.939	408.86
730.267	345.03
730.596	388.43
730.925	393.54
731.254	421.63
731.583	365.45
731.911	398.65
732.24	339.92
732.568	342.47
732.897	390.99
733.225	408.86
733.554	390.99
733.882	401.2
734.21	357.79
734.539	355.24
734.867	350.13
735.195	319.49
735.523	426.73
735.851	380.77
736.179	362.9
736.507	390.99
736.835	339.92
737.163	352.69
737.491	421.63
737.819	408.86
738.147	436.95
738.474	365.45
738.802	383.33
739.13	345.03
739.457	370.56
739.785	398.65
740.112	357.79
740.44	429.29
740.767	373.11
741.094	390.99
741.422	339.92
741.749	385.88
742.076	329.7
742.403	470.14
742.73	421.63
743.057	472.69
743.384	393.54
743.711	334.81
744.038	339.92
744.365	493.12
744.692	411.41
745.018	368.01
745.345	439.5
745.672	385.88
745.998	345.03
746.325	401.2
746.651	406.31
746.978	345.03
747.304	383.33
747.631	378.22
747.957	375.67
748.283	419.07
748.61	378.22
748.936	357.79
749.262	360.35
749.588	378.22
749.914	375.67
750.24	370.56
750.566	365.45
750.892	447.16
751.218	339.92
751.543	393.54
751.869	365.45
752.195	357.79
752.521	306.72
752.846	355.24
753.172	444.61
753.497	439.5
753.823	370.56
754.148	442.05
754.473	424.18
754.799	301.62
755.124	360.35
755.449	375.67
755.774	390.99
756.1	332.26
756.425	408.86
756.75	360.35
757.075	373.11
757.4	472.69
757.724	383.33
758.049	411.41
758.374	329.7
758.699	347.58
759.024	339.92
759.348	408.86
759.673	365.45
759.997	390.99
760.322	396.09
760.646	452.27
760.971	365.45
761.295	383.33
761.619	396.09
761.944	413.97
762.268	360.35
762.592	449.71
762.916	424.18
763.24	403.75
763.564	342.47
763.888	411.41
764.212	319.49
764.536	419.07
764.86	362.9
765.184	393.54
765.508	360.35
765.831	324.6
766.155	544.19
766.478	398.65
766.802	322.04
767.126	390.99
767.449	403.75
767.772	375.67
768.096	385.88
768.419	337.37
768.742	396.09
769.066	357.79
769.389	393.54
769.712	332.26
770.035	339.92
770.358	383.33
770.681	324.6
771.004	393.54
771.327	403.75
771.65	365.45
771.972	383.33
772.295	434.39
772.618	439.5
772.941	429.29
773.263	352.69
773.586	419.07
773.908	408.86
774.231	411.41
774.553	375.67
774.875	439.5
775.198	488.01
775.52	385.88
775.842	380.77
776.164	352.69
776.487	365.45
776.809	419.07
777.131	398.65
777.453	329.7
777.775	357.79
778.096	352.69
778.418	401.2
778.74	370.56
779.062	319.49
779.384	370.56
779.705	362.9
780.027	375.67
780.348	350.13
780.67	431.84
780.991	380.77
781.313	342.47
781.634	322.04
781.955	360.35
782.277	345.03
782.598	411.41
782.919	398.65
783.24	408.86
783.561	390.99
783.882	357.79
784.203	416.52
784.524	304.17
784.845	442.05
785.166	345.03
785.487	350.13
785.807	388.43
786.128	393.54
786.449	350.13
786.769	413.97
787.09	375.67
787.41	360.35
787.731	352.69
788.051	375.67
788.372	362.9
788.692	403.75
789.012	370.56
789.332	357.79
789.653	413.97
789.973	378.22
790.293	373.11
790.613	390.99
790.933	421.63
791.253	383.33
791.573	355.24
791.893	327.15
792.212	299.06
792.532	324.6
792.852	337.37
793.171	368.01
793.491	339.92
793.811	345.03
794.13	408.86
794.45	380.77
794.769	421.63
795.088	401.2
795.408	413.97
795.727	411.41
796.046	314.38
796.365	375.67
796.684	421.63
797.004	419.07
797.323	375.67
797.642	352.69
797.96	408.86
798.279	319.49
798.598	324.6
798.917	398.65
799.236	424.18
799.554	350.13
799.873	380.77
800.192	357.79
800.51	345.03
800.829	444.61
801.147	339.92
801.466	380.77
801.784	396.09
802.102	459.93
802.421	362.9
802.739	339.92
803.057	426.73
803.375	337.37
803.693	339.92
804.011	342.47
804.329	411.41
804.647	373.11
804.965	350.13
805.283	375.67
805.601	439.5
805.918	431.84
806.236	383.33
806.554	406.31
806.871	419.07
807.189	385.88
807.507	365.45
807.824	393.54
808.141	408.86
808.459	365.45
808.776	368.01
809.093	388.43
809.411	373.11
809.728	396.09
810.045	393.54
810.362	406.31
810.679	401.2
810.996	368.01
811.313	378.22
811.63	393.54
811.947	362.9
812.264	385.88
812.58	416.52
812.897	329.7
813.214	480.35
813.53	403.75
813.847	306.72
814.163	357.79
814.48	350.13
814.796	365.45
815.113	434.39
815.429	401.2
815.745	416.52
816.061	421.63
816.378	378.22
816.694	403.75
817.01	426.73
817.326	368.01
817.642	375.67
817.958	365.45
818.274	424.18
818.59	362.9
818.905	355.24
819.221	332.26
819.537	368.01
819.852	383.33
820.168	362.9
820.484	296.51
820.799	388.43
821.115	401.2
821.43	311.83
821.745	352.69
822.061	416.52
822.376	421.63
822.691	421.63
823.006	373.11
823.322	337.37
823.637	316.94
823.952	334.81
824.267	360.35
824.582	286.3
824.897	401.2
825.211	385.88
825.526	337.37
825.841	390.99
826.156	339.92
826.47	385.88
826.785	419.07
827.1	462.48
827.414	390.99
827.729	355.24
828.043	403.75
828.357	406.31
828.672	406.31
828.986	324.6
829.3	373.11
829.614	332.26
829.929	347.58
830.243	408.86
830.557	388.43
830.871	347.58
831.185	459.93
831.499	401.2
831.812	406.31
832.126	355.24
832.44	390.99
832.754	370.56
833.067	385.88
833.381	393.54
833.695	337.37
834.008	350.13
834.322	365.45
834.635	362.9
834.948	332.26
835.262	293.96
835.575	360.35
835.888	378.22
836.201	378.22
836.515	408.86
836.828	362.9
837.141	365.45
837.454	355.24
837.767	329.7
838.08	380.77
838.392	439.5
838.705	362.9
839.018	424.18
839.331	411.41
839.643	365.45
839.956	350.13
840.269	352.69
840.581	357.79
840.894	385.88
841.206	388.43
841.519	518.65
841.831	403.75
842.143	350.13
842.455	342.47
842.768	396.09
843.08	352.69
843.392	368.01
843.704	416.52
844.016	413.97
844.328	393.54
844.64	393.54
844.952	324.6
845.263	322.04
845.575	383.33
845.887	393.54
846.199	419.07
846.51	368.01
846.822	424.18
847.133	373.11
847.445	434.39
847.756	355.24
848.068	345.03
848.379	373.11
848.69	419.07
849.002	368.01
849.313	357.79
849.624	357.79
849.935	393.54
850.246	375.67
850.557	390.99
850.868	421.63
851.179	396.09
851.49	408.86
851.801	357.79
852.112	370.56
852.422	401.2
852.733	398.65
853.044	406.31
853.354	375.67
853.665	401.2
853.975	406.31
854.286	365.45
854.596	327.15
854.906	368.01
855.217	299.06
855.527	342.47
855.837	403.75
856.147	375.67
856.458	452.27
856.768	396.09
857.078	322.04
857.388	347.58
857.698	383.33
858.007	370.56
858.317	398.65
858.627	429.29
858.937	396.09
859.246	419.07
859.556	401.2
859.866	416.52
860.175	355.24
860.485	449.71
860.794	380.77
861.104	380.77
861.413	378.22
861.722	352.69
862.032	345.03
862.341	385.88
862.65	365.45
862.959	345.03
863.268	342.47
863.577	368.01
863.886	357.79
864.195	296.51
864.504	378.22
864.813	403.75
865.122	380.77
865.43	426.73
865.739	396.09
866.048	350.13
866.356	378.22
866.665	401.2
866.973	352.69
867.282	398.65
867.59	375.67
867.899	396.09
868.207	339.92
868.515	383.33
868.823	406.31
869.132	413.97
869.44	388.43
869.748	411.41
870.056	388.43
870.364	383.33
870.672	373.11
870.98	436.95
871.288	380.77
871.595	396.09
871.903	429.29
872.211	424.18
872.518	347.58
872.826	411.41
873.134	383.33
873.441	365.45
873.749	352.69
874.056	380.77
874.363	457.37
874.671	357.79
874.978	378.22
875.285	388.43
875.592	431.84
875.9	424.18
876.207	396.09
876.514	375.67
876.821	436.95
877.128	406.31
877.435	383.33
877.741	383.33
878.048	373.11
878.355	398.65
878.662	342.47
878.968	413.97
879.275	373.11
879.582	378.22
879.888	360.35
880.195	352.69
880.501	393.54
880.807	362.9
881.114	360.35
881.42	355.24
881.726	337.37
882.032	352.69
882.339	419.07
882.645	406.31
882.951	444.61
883.257	426.73
883.563	398.65
883.869	350.13
884.174	419.07
884.48	398.65
884.786	327.15
885.092	375.67
885.397	401.2
885.703	390.99
886.009	334.81
886.314	375.67
886.62	434.39
886.925	401.2
887.231	345.03
887.536	413.97
887.841	332.26
888.146	408.86
888.452	406.31
888.757	383.33
889.062	413.97
889.367	383.33
889.672	350.13
889.977	403.75
890.282	342.47
890.587	322.04
890.892	281.19
891.196	360.35
891.501	368.01
891.806	373.11
892.11	378.22
892.415	378.22
892.72	360.35
893.024	436.95
893.328	465.03
893.633	345.03
893.937	360.35
894.242	401.2
894.546	373.11
894.85	413.97
895.154	378.22
895.458	339.92
895.762	396.09
896.066	378.22
896.37	424.18
896.674	370.56
896.978	370.56
897.282	342.47
897.586	390.99
897.89	362.9
898.193	436.95
898.497	411.41
898.801	439.5
899.104	401.2
899.408	393.54
899.711	393.54
900.014	314.38
900.318	436.95
900.621	355.24
900.924	362.9
901.228	388.43
901.531	393.54
901.834	419.07
902.137	373.11
902.44	408.86
902.743	350.13
903.046	393.54
903.349	406.31
903.652	368.01
903.955	370.56
904.257	350.13
904.56	424.18
904.863	429.29
905.165	472.69
905.468	406.31
905.77	447.16
906.073	393.54
906.375	375.67
906.678	345.03
906.98	388.43
907.282	347.58
907.584	439.5
907.887	403.75
908.189	459.93
908.491	375.67
908.793	365.45
909.095	426.73
909.397	429.29
909.699	401.2
910.001	413.97
910.302	408.86
910.604	342.47
910.906	436.95
911.208	355.24
911.509	408.86
911.811	339.92
912.112	337.37
912.414	362.9
912.715	342.47
913.017	339.92
913.318	421.63
913.619	396.09
913.92	373.11
914.222	352.69
914.523	365.45
914.824	339.92
915.125	393.54
915.426	470.14
915.727	362.9
916.028	373.11
916.329	365.45
916.63	368.01
916.93	390.99
917.231	475.25
917.532	347.58
917.832	403.75
918.133	365.45
918.434	365.45
918.734	362.9
919.034	334.81
919.335	373.11
919.635	419.07
919.935	322.04
920.236	347.58
920.536	352.69
920.836	393.54
921.136	360.35
921.436	485.46
921.736	411.41
922.036	352.69
922.336	373.11
922.636	329.7
922.936	393.54
923.236	416.52
923.535	403.75
923.835	357.79
924.135	380.77
924.434	373.11
924.734	347.58
925.033	332.26
925.333	319.49
925.632	309.28
925.932	398.65
926.231	365.45
926.53	378.22
926.83	447.16
927.129	365.45
927.428	431.84
927.727	459.93
928.026	390.99
928.325	322.04
928.624	383.33
928.923	431.84
929.222	401.2
929.52	421.63
929.819	378.22
930.118	332.26
930.417	406.31
930.715	365.45
931.014	390.99
931.312	411.41
931.611	424.18
931.909	383.33
932.207	419.07
932.506	334.81
932.804	396.09
933.102	368.01
933.401	352.69
933.699	329.7
933.997	388.43
934.295	424.18
934.593	385.88
934.891	403.75
935.189	334.81
935.487	339.92
935.784	393.54
936.082	373.11
936.38	378.22
936.677	373.11
936.975	345.03
937.273	362.9
937.57	393.54
937.868	375.67
938.165	378.22
938.463	301.62
938.76	357.79
939.057	408.86
939.354	388.43
939.652	360.35
939.949	388.43
940.246	324.6
940.543	350.13
940.84	370.56
941.137	426.73
941.434	375.67
941.731	368.01
942.028	334.81
942.324	390.99
942.621	378.22
942.918	378.22
943.214	350.13
943.511	398.65
943.807	436.95
944.104	350.13
944.4	401.2
944.697	406.31
944.993	411.41
945.29	403.75
945.586	431.84
945.882	416.52
946.178	368.01
946.474	350.13
946.77	434.39
947.066	350.13
947.362	398.65
947.658	380.77
947.954	426.73
948.25	408.86
948.546	360.35
948.842	416.52
949.137	411.41
949.433	373.11
949.729	350.13
950.024	339.92
950.32	373.11
950.615	350.13
950.91	378.22
951.206	339.92
951.501	380.77
951.796	373.11
952.092	385.88
952.387	375.67
952.682	375.67
952.977	401.2
953.272	357.79
953.567	388.43
953.862	357.79
954.157	373.11
954.452	385.88
954.747	411.41
955.041	421.63
955.336	329.7
955.631	347.58
955.925	322.04
956.22	365.45
956.514	380.77
956.809	299.06
957.103	431.84
957.398	368.01
957.692	352.69
957.986	339.92
958.281	355.24
958.575	355.24
958.869	406.31
959.163	419.07
959.457	355.24
959.751	352.69
960.045	332.26
960.339	388.43
960.633	345.03
960.927	403.75
961.221	388.43
961.514	413.97
961.808	365.45
962.102	368.01
962.395	413.97
962.689	345.03
962.982	408.86
963.276	393.54
963.569	365.45
963.862	378.22
964.156	454.82
964.449	350.13
964.742	393.54
965.035	357.79
965.328	426.73
965.622	393.54
965.915	390.99
966.208	337.37
966.5	283.74
966.793	383.33
967.086	368.01
967.379	421.63
967.672	380.77
967.964	347.58
968.257	296.51
968.55	370.56
968.842	431.84
969.135	380.77
969.427	390.99
969.72	350.13
970.012	370.56
970.304	360.35
970.597	339.92
970.889	365.45
971.181	355.24
971.473	324.6
971.765	385.88
972.057	380.77
972.349	388.43
972.641	403.75
972.933	408.86
973.225	352.69
973.517	360.35
973.809	365.45
974.1	383.33
974.392	350.13
974.684	419.07
974.975	370.56
975.267	378.22
975.558	408.86
975.85	380.77
976.141	380.77
976.432	350.13
976.724	380.77
977.015	401.2
977.306	436.95
977.597	436.95
977.888	426.73
978.179	442.05
978.47	447.16
978.761	403.75
979.052	306.72
979.343	357.79
979.634	416.52
979.925	424.18
980.215	383.33
980.506	360.35
980.797	370.56
981.087	362.9
981.378	403.75
981.668	398.65
981.959	421.63
982.249	380.77
982.54	378.22
982.83	429.29
983.12	390.99
983.41	390.99
983.701	406.31
983.991	304.17
984.281	385.88
984.571	396.09
984.861	390.99
985.151	398.65
985.441	368.01
985.73	393.54
986.02	408.86
986.31	406.31
986.6	447.16
986.889	406.31
987.179	383.33
987.469	350.13
987.758	373.11
988.048	306.72
988.337	393.54
988.626	393.54
988.916	380.77
989.205	347.58
989.494	370.56
989.783	327.15
990.073	393.54
990.362	375.67
990.651	396.09
990.94	390.99
991.229	365.45
991.518	424.18
991.806	373.11
992.095	373.11
992.384	319.49
992.673	322.04
992.961	439.5
993.25	362.9
993.539	378.22
993.827	375.67
994.116	347.58
994.404	375.67
994.692	424.18
994.981	360.35
995.269	368.01
995.557	416.52
995.846	373.11
996.134	398.65
996.422	365.45
996.71	416.52
996.998	403.75
997.286	403.75
997.574	390.99
997.862	378.22
998.15	362.9
998.437	368.01
998.725	362.9
999.013	329.7
999.3	345.03
999.588	413.97
999.876	436.95
1000.163	403.75
1000.45	375.67
1000.738	332.26
1001.025	316.94
1001.313	388.43
1001.6	352.69
1001.887	337.37
1002.174	332.26
1002.461	482.91
1002.748	380.77
1003.036	429.29
1003.322	365.45
1003.609	347.58
1003.896	345.03
1004.183	447.16
1004.47	360.35
1004.757	316.94
1005.043	416.52
1005.33	362.9
1005.617	322.04
1005.903	401.2
1006.19	436.95
1006.476	378.22
1006.763	337.37
1007.049	357.79
1007.335	365.45
1007.622	373.11
1007.908	329.7
1008.194	380.77
1008.48	324.6
1008.766	403.75
1009.053	419.07
1009.339	416.52
1009.625	375.67
1009.91	398.65
1010.196	311.83
1010.482	339.92
1010.768	388.43
1011.054	332.26
1011.339	401.2
1011.625	373.11
1011.911	447.16
1012.196	385.88
1012.482	337.37
1012.767	355.24
1013.052	378.22
1013.338	332.26
1013.623	362.9
1013.908	426.73
1014.194	378.22
1014.479	345.03
1014.764	347.58
1015.049	383.33
1015.334	398.65
1015.619	309.28
1015.904	337.37
1016.189	350.13
1016.474	388.43
1016.758	375.67
1017.043	360.35
1017.328	339.92
1017.613	421.63
1017.897	396.09
1018.182	337.37
1018.466	375.67
1018.751	365.45
1019.035	370.56
1019.32	373.11
1019.604	416.52
1019.888	337.37
1020.172	337.37
1020.457	337.37
