Data from 2025-12-03_xpw_interference_micrometer_634_dark_FLMS141361__27__177.txt Node

Date: Wed Dec 03 15:50:02 MST 2025
User: james
Spectrometer: FLMS14136
Trigger mode: 0
Integration Time (sec): 1.000000E-1
Scans to average: 1
Electric dark correction enabled: true
Nonlinearity correction enabled: false
Boxcar width: 0
XAxis mode: Wavelengths
Number of Pixels in Spectrum: 2048
>>>>>Begin Spectral Data<<<<<
339.315	-105.17
339.697	-105.17
340.079	-105.17
340.461	-138.36
340.843	-125.59
341.225	-82.19
341.607	-48.99
341.989	-64.31
342.371	-102.61
342.752	-77.08
343.134	-33.67
343.516	-54.1
343.897	-0.48
344.279	-3.03
344.661	-26.01
345.042	-0.48
345.423	35.27
345.805	73.57
346.186	86.34
346.567	137.4
346.949	160.38
347.33	106.76
347.711	221.67
348.092	229.33
348.473	203.79
348.854	234.43
349.235	270.18
349.616	224.22
349.997	290.61
350.378	267.63
350.758	267.63
351.139	372.31
351.52	308.48
351.9	280.39
352.281	262.52
352.661	339.12
353.042	336.57
353.422	379.97
353.803	408.06
354.183	321.25
354.563	415.72
354.943	400.4
355.324	395.29
355.704	410.62
356.084	418.28
356.464	367.21
356.844	425.94
357.224	392.74
357.603	349.33
357.983	359.55
358.363	344.23
358.743	341.67
359.122	346.78
359.502	410.62
359.882	379.97
360.261	392.74
360.641	377.42
361.02	420.83
361.399	364.65
361.779	293.16
362.158	356.99
362.537	262.52
362.916	344.23
363.296	377.42
363.675	346.78
364.054	293.16
364.433	346.78
364.812	402.95
365.19	293.16
365.569	364.65
365.948	377.42
366.327	334.01
366.705	295.71
367.084	290.61
367.463	367.21
367.841	303.37
368.22	423.38
368.598	323.8
368.977	367.21
369.355	308.48
369.733	326.35
370.111	372.31
370.49	316.14
370.868	359.55
371.246	339.12
371.624	288.05
372.002	402.95
372.38	349.33
372.758	369.76
373.136	334.01
373.513	359.55
373.891	351.89
374.269	354.44
374.646	359.55
375.024	300.82
375.402	364.65
375.779	392.74
376.157	351.89
376.534	349.33
376.911	311.03
377.289	331.46
377.666	382.53
378.043	372.31
378.42	293.16
378.797	397.85
379.175	397.85
379.552	321.25
379.929	387.63
380.305	341.67
380.682	328.91
381.059	379.97
381.436	397.85
381.813	379.97
382.189	402.95
382.566	359.55
382.943	339.12
383.319	379.97
383.696	359.55
384.072	311.03
384.448	369.76
384.825	374.87
385.201	359.55
385.577	379.97
385.953	341.67
386.329	400.4
386.706	387.63
387.082	374.87
387.458	344.23
387.834	316.14
388.209	328.91
388.585	334.01
388.961	341.67
389.337	326.35
389.713	344.23
390.088	298.27
390.464	413.17
390.839	356.99
391.215	379.97
391.59	433.6
391.966	390.19
392.341	362.1
392.716	298.27
393.092	385.08
393.467	372.31
393.842	339.12
394.217	367.21
394.592	328.91
394.967	336.57
395.342	408.06
395.717	374.87
396.092	318.69
396.467	374.87
396.841	369.76
397.216	354.44
397.591	408.06
397.965	349.33
398.34	341.67
398.714	364.65
399.089	362.1
399.463	390.19
399.838	369.76
400.212	448.92
400.586	362.1
400.961	321.25
401.335	303.37
401.709	400.4
402.083	400.4
402.457	372.31
402.831	351.89
403.205	367.21
403.579	420.83
403.953	313.59
404.326	326.35
404.7	382.53
405.074	385.08
405.447	364.65
405.821	392.74
406.195	390.19
406.568	418.28
406.942	392.74
407.315	321.25
407.688	362.1
408.062	354.44
408.435	313.59
408.808	290.61
409.181	423.38
409.554	362.1
409.927	382.53
410.3	341.67
410.673	387.63
411.046	423.38
411.419	397.85
411.792	402.95
412.165	356.99
412.537	359.55
412.91	331.46
413.283	349.33
413.655	372.31
414.028	379.97
414.4	334.01
414.773	351.89
415.145	349.33
415.517	341.67
415.889	303.37
416.262	356.99
416.634	377.42
417.006	390.19
417.378	336.57
417.75	397.85
418.122	410.62
418.494	339.12
418.866	323.8
419.238	369.76
419.609	344.23
419.981	354.44
420.353	354.44
420.725	387.63
421.096	379.97
421.468	397.85
421.839	423.38
422.211	372.31
422.582	374.87
422.953	390.19
423.325	420.83
423.696	305.93
424.067	377.42
424.438	346.78
424.809	354.44
425.18	323.8
425.551	369.76
425.922	420.83
426.293	379.97
426.664	428.49
427.035	443.81
427.406	431.04
427.776	436.15
428.147	359.55
428.518	374.87
428.888	402.95
429.259	374.87
429.629	341.67
429.999	323.8
430.37	402.95
430.74	362.1
431.11	392.74
431.481	341.67
431.851	413.17
432.221	428.49
432.591	367.21
432.961	433.6
433.331	362.1
433.701	387.63
434.071	395.29
434.441	425.94
434.81	367.21
435.18	331.46
435.55	400.4
435.919	362.1
436.289	382.53
436.658	354.44
437.028	387.63
437.397	395.29
437.767	408.06
438.136	356.99
438.505	408.06
438.875	318.69
439.244	418.28
439.613	420.83
439.982	390.19
440.351	323.8
440.72	395.29
441.089	431.04
441.458	364.65
441.827	400.4
442.196	479.56
442.564	438.7
442.933	441.26
443.302	408.06
443.67	385.08
444.039	364.65
444.407	379.97
444.776	385.08
445.144	303.37
445.513	326.35
445.881	474.45
446.249	379.97
446.617	331.46
446.986	377.42
447.354	420.83
447.722	346.78
448.09	359.55
448.458	362.1
448.826	477
449.194	400.4
449.561	431.04
449.929	405.51
450.297	367.21
450.665	454.02
451.032	390.19
451.4	349.33
451.767	402.95
452.135	374.87
452.502	356.99
452.87	328.91
453.237	410.62
453.604	367.21
453.971	438.7
454.339	446.36
454.706	354.44
455.073	334.01
455.44	359.55
455.807	415.72
456.174	397.85
456.541	382.53
456.908	351.89
457.274	400.4
457.641	382.53
458.008	400.4
458.374	387.63
458.741	392.74
459.108	344.23
459.474	408.06
459.841	308.48
460.207	436.15
460.573	408.06
460.94	392.74
461.306	374.87
461.672	369.76
462.038	336.57
462.404	436.15
462.771	392.74
463.137	402.95
463.503	436.15
463.868	410.62
464.234	413.17
464.6	392.74
464.966	459.13
465.332	438.7
465.697	410.62
466.063	423.38
466.429	387.63
466.794	390.19
467.16	374.87
467.525	359.55
467.89	331.46
468.256	339.12
468.621	359.55
468.986	372.31
469.351	410.62
469.717	397.85
470.082	364.65
470.447	298.27
470.812	300.82
471.177	405.51
471.542	410.62
471.906	433.6
472.271	400.4
472.636	377.42
473.001	397.85
473.365	446.36
473.73	351.89
474.094	395.29
474.459	420.83
474.823	410.62
475.188	397.85
475.552	448.92
475.917	423.38
476.281	415.72
476.645	369.76
477.009	492.32
477.373	410.62
477.737	387.63
478.101	336.57
478.465	390.19
478.829	385.08
479.193	410.62
479.557	441.26
479.921	420.83
480.284	374.87
480.648	428.49
481.012	313.59
481.375	395.29
481.739	395.29
482.102	341.67
482.466	466.79
482.829	402.95
483.193	392.74
483.556	377.42
483.919	382.53
484.282	372.31
484.645	346.78
485.009	423.38
485.372	364.65
485.735	346.78
486.098	397.85
486.46	349.33
486.823	423.38
487.186	397.85
487.549	359.55
487.912	374.87
488.274	425.94
488.637	397.85
488.999	415.72
489.362	400.4
489.724	382.53
490.087	367.21
490.449	349.33
490.811	367.21
491.174	349.33
491.536	341.67
491.898	359.55
492.26	410.62
492.622	359.55
492.984	369.76
493.346	387.63
493.708	461.68
494.07	323.8
494.432	344.23
494.794	364.65
495.155	420.83
495.517	441.26
495.879	408.06
496.24	433.6
496.602	438.7
496.963	410.62
497.325	364.65
497.686	334.01
498.048	433.6
498.409	420.83
498.77	385.08
499.131	346.78
499.492	413.17
499.854	418.28
500.215	410.62
500.576	382.53
500.937	431.04
501.298	428.49
501.658	390.19
502.019	425.94
502.38	372.31
502.741	405.51
503.101	425.94
503.462	364.65
503.823	413.17
504.183	372.31
504.543	377.42
504.904	367.21
505.264	428.49
505.625	362.1
505.985	341.67
506.345	385.08
506.705	400.4
507.065	374.87
507.426	372.31
507.786	392.74
508.146	377.42
508.505	410.62
508.865	377.42
509.225	408.06
509.585	392.74
509.945	334.01
510.304	344.23
510.664	405.51
511.024	318.69
511.383	377.42
511.743	377.42
512.102	408.06
512.462	423.38
512.821	395.29
513.18	374.87
513.539	425.94
513.899	405.51
514.258	382.53
514.617	402.95
514.976	438.7
515.335	377.42
515.694	392.74
516.053	382.53
516.412	392.74
516.771	364.65
517.129	349.33
517.488	372.31
517.847	402.95
518.205	402.95
518.564	408.06
518.922	395.29
519.281	382.53
519.639	341.67
519.998	387.63
520.356	374.87
520.714	402.95
521.073	382.53
521.431	408.06
521.789	349.33
522.147	438.7
522.505	377.42
522.863	372.31
523.221	385.08
523.579	379.97
523.937	395.29
524.295	385.08
524.652	428.49
525.01	351.89
525.368	379.97
525.725	336.57
526.083	402.95
526.44	395.29
526.798	367.21
527.155	461.68
527.513	436.15
527.87	433.6
528.227	377.42
528.584	390.19
528.942	344.23
529.299	351.89
529.656	402.95
530.013	385.08
530.37	410.62
530.727	351.89
531.083	392.74
531.44	336.57
531.797	397.85
532.154	369.76
532.511	397.85
532.867	356.99
533.224	395.29
533.58	369.76
533.937	288.05
534.293	354.44
534.65	431.04
535.006	392.74
535.362	339.12
535.718	446.36
536.075	356.99
536.431	374.87
536.787	377.42
537.143	405.51
537.499	454.02
537.855	400.4
538.211	362.1
538.567	328.91
538.923	418.28
539.278	367.21
539.634	395.29
539.99	402.95
540.345	431.04
540.701	390.19
541.056	354.44
541.412	397.85
541.767	397.85
542.123	410.62
542.478	339.12
542.833	362.1
543.188	436.15
543.544	415.72
543.899	405.51
544.254	364.65
544.609	362.1
544.964	392.74
545.319	387.63
545.674	418.28
546.029	448.92
546.383	505.09
546.738	377.42
547.093	364.65
547.447	395.29
547.802	385.08
548.157	336.57
548.511	385.08
548.866	428.49
549.22	448.92
549.574	377.42
549.929	425.94
550.283	397.85
550.637	354.44
550.991	385.08
551.345	364.65
551.699	356.99
552.053	379.97
552.407	377.42
552.761	387.63
553.115	341.67
553.469	385.08
553.823	395.29
554.176	374.87
554.53	349.33
554.884	443.81
555.237	642.97
555.591	413.17
555.944	423.38
556.298	379.97
556.651	423.38
557.005	369.76
557.358	443.81
557.711	382.53
558.064	359.55
558.417	402.95
558.771	420.83
559.124	392.74
559.477	423.38
559.83	385.08
560.182	372.31
560.535	471.9
560.888	433.6
561.241	464.24
561.594	423.38
561.946	367.21
562.299	415.72
562.651	408.06
563.004	413.17
563.356	413.17
563.709	379.97
564.061	459.13
564.413	431.04
564.766	392.74
565.118	443.81
565.47	379.97
565.822	390.19
566.174	379.97
566.526	362.1
566.878	413.17
567.23	431.04
567.582	436.15
567.934	379.97
568.286	474.45
568.638	387.63
568.989	461.68
569.341	362.1
569.693	487.22
570.044	428.49
570.396	344.23
570.747	354.44
571.098	387.63
571.45	448.92
571.801	405.51
572.152	351.89
572.504	372.31
572.855	344.23
573.206	369.76
573.557	372.31
573.908	341.67
574.259	392.74
574.61	413.17
574.961	288.05
575.311	428.49
575.662	382.53
576.013	372.31
576.364	413.17
576.714	400.4
577.065	379.97
577.415	474.45
577.766	377.42
578.116	367.21
578.467	390.19
578.817	379.97
579.167	454.02
579.518	410.62
579.868	415.72
580.218	395.29
580.568	431.04
580.918	464.24
581.268	390.19
581.618	367.21
581.968	433.6
582.318	400.4
582.668	413.17
583.017	436.15
583.367	420.83
583.717	362.1
584.066	395.29
584.416	402.95
584.765	372.31
585.115	451.47
585.464	408.06
585.814	448.92
586.163	464.24
586.512	418.28
586.862	446.36
587.211	379.97
587.56	364.65
587.909	418.28
588.258	379.97
588.607	418.28
588.956	374.87
589.305	367.21
589.654	390.19
590.002	369.76
590.351	395.29
590.7	346.78
591.048	390.19
591.397	410.62
591.746	390.19
592.094	392.74
592.443	420.83
592.791	466.79
593.139	395.29
593.488	334.01
593.836	423.38
594.184	339.12
594.532	382.53
594.88	331.46
595.228	402.95
595.576	362.1
595.924	410.62
596.272	392.74
596.62	341.67
596.968	377.42
597.316	377.42
597.664	354.44
598.011	351.89
598.359	397.85
598.706	379.97
599.054	354.44
599.402	377.42
599.749	413.17
600.096	379.97
600.444	354.44
600.791	367.21
601.138	456.58
601.485	336.57
601.833	385.08
602.18	367.21
602.527	431.04
602.874	402.95
603.221	390.19
603.568	392.74
603.914	482.11
604.261	461.68
604.608	397.85
604.955	313.59
605.301	438.7
605.648	385.08
605.995	400.4
606.341	313.59
606.688	367.21
607.034	379.97
607.38	372.31
607.727	313.59
608.073	311.03
608.419	272.73
608.765	364.65
609.112	433.6
609.458	372.31
609.804	372.31
610.15	448.92
610.496	418.28
610.842	377.42
611.187	423.38
611.533	464.24
611.879	390.19
612.225	405.51
612.57	415.72
612.916	418.28
613.261	402.95
613.607	364.65
613.952	402.95
614.298	392.74
614.643	359.55
614.989	397.85
615.334	372.31
615.679	351.89
616.024	377.42
616.369	308.48
616.714	400.4
617.059	346.78
617.404	438.7
617.749	425.94
618.094	334.01
618.439	354.44
618.784	395.29
619.129	374.87
619.473	397.85
619.818	387.63
620.163	387.63
620.507	377.42
620.852	336.57
621.196	328.91
621.54	385.08
621.885	369.76
622.229	344.23
622.573	415.72
622.918	369.76
623.262	372.31
623.606	390.19
623.95	341.67
624.294	392.74
624.638	349.33
624.982	356.99
625.326	364.65
625.67	413.17
626.013	372.31
626.357	318.69
626.701	349.33
627.044	413.17
627.388	351.89
627.731	321.25
628.075	420.83
628.418	441.26
628.762	448.92
629.105	402.95
629.448	346.78
629.792	364.65
630.135	390.19
630.478	400.4
630.821	387.63
631.164	364.65
631.507	413.17
631.85	420.83
632.193	400.4
632.536	385.08
632.879	336.57
633.221	372.31
633.564	395.29
633.907	405.51
634.249	382.53
634.592	420.83
634.935	362.1
635.277	402.95
635.619	433.6
635.962	372.31
636.304	415.72
636.646	454.02
636.989	377.42
637.331	413.17
637.673	402.95
638.015	346.78
638.357	351.89
638.699	344.23
639.041	331.46
639.383	387.63
639.725	395.29
640.067	387.63
640.408	367.21
640.75	351.89
641.092	379.97
641.433	331.46
641.775	420.83
642.116	313.59
642.458	397.85
642.799	400.4
643.141	331.46
643.482	369.76
643.823	499.98
644.164	451.47
644.506	466.79
644.847	387.63
645.188	359.55
645.529	379.97
645.87	349.33
646.211	459.13
646.552	436.15
646.893	425.94
647.233	420.83
647.574	436.15
647.915	451.47
648.255	367.21
648.596	438.7
648.937	385.08
649.277	321.25
649.618	405.51
649.958	374.87
650.298	349.33
650.639	377.42
650.979	459.13
651.319	428.49
651.659	423.38
651.999	425.94
652.339	298.27
652.679	410.62
653.019	425.94
653.359	438.7
653.699	356.99
654.039	425.94
654.379	405.51
654.719	305.93
655.058	369.76
655.398	354.44
655.737	377.42
656.077	423.38
656.416	446.36
656.756	436.15
657.095	423.38
657.435	400.4
657.774	372.31
658.113	382.53
658.452	362.1
658.792	459.13
659.131	385.08
659.47	402.95
659.809	377.42
660.148	443.81
660.487	431.04
660.826	428.49
661.164	428.49
661.503	390.19
661.842	392.74
662.181	359.55
662.519	405.51
662.858	390.19
663.196	451.47
663.535	372.31
663.873	369.76
664.212	402.95
664.55	492.32
664.888	405.51
665.226	377.42
665.565	339.12
665.903	597.01
666.241	456.58
666.579	428.49
666.917	431.04
667.255	369.76
667.593	408.06
667.931	433.6
668.268	431.04
668.606	436.15
668.944	431.04
669.282	344.23
669.619	397.85
669.957	415.72
670.294	423.38
670.632	410.62
670.969	377.42
671.307	410.62
671.644	382.53
671.981	392.74
672.318	395.29
672.656	354.44
672.993	400.4
673.33	377.42
673.667	423.38
674.004	438.7
674.341	372.31
674.678	364.65
675.015	390.19
675.351	382.53
675.688	400.4
676.025	382.53
676.362	392.74
676.698	385.08
677.035	402.95
677.371	436.15
677.708	377.42
678.044	408.06
678.38	423.38
678.717	290.61
679.053	351.89
679.389	405.51
679.725	456.58
680.062	356.99
680.398	311.03
680.734	331.46
681.07	377.42
681.406	336.57
681.742	364.65
682.077	326.35
682.413	387.63
682.749	298.27
683.085	364.65
683.42	454.02
683.756	420.83
684.091	405.51
684.427	318.69
684.762	377.42
685.098	382.53
685.433	374.87
685.768	367.21
686.104	405.51
686.439	395.29
686.774	387.63
687.109	397.85
687.444	415.72
687.779	316.14
688.114	367.21
688.449	369.76
688.784	313.59
689.119	346.78
689.454	379.97
689.789	400.4
690.123	385.08
690.458	413.17
690.792	446.36
691.127	349.33
691.461	369.76
691.796	341.67
692.13	408.06
692.465	428.49
692.799	385.08
693.133	359.55
693.467	387.63
693.802	441.26
694.136	339.12
694.47	372.31
694.804	359.55
695.138	410.62
695.472	390.19
695.806	334.01
696.139	382.53
696.473	369.76
696.807	400.4
697.141	344.23
697.474	382.53
697.808	311.03
698.141	354.44
698.475	385.08
698.808	372.31
699.142	356.99
699.475	367.21
699.808	438.7
700.142	346.78
700.475	367.21
700.808	431.04
701.141	395.29
701.474	308.48
701.807	374.87
702.14	390.19
702.473	461.68
702.806	392.74
703.139	405.51
703.472	392.74
703.804	318.69
704.137	323.8
704.47	408.06
704.802	423.38
705.135	382.53
705.467	339.12
705.8	346.78
706.132	359.55
706.464	392.74
706.797	362.1
707.129	415.72
707.461	379.97
707.793	390.19
708.125	346.78
708.457	392.74
708.789	438.7
709.121	405.51
709.453	405.51
709.785	308.48
710.117	387.63
710.449	385.08
710.781	433.6
711.112	351.89
711.444	441.26
711.775	374.87
712.107	392.74
712.438	418.28
712.77	387.63
713.101	385.08
713.433	341.67
713.764	392.74
714.095	436.15
714.426	415.72
714.757	443.81
715.089	351.89
715.42	423.38
715.751	454.02
716.082	408.06
716.412	413.17
716.743	367.21
717.074	428.49
717.405	413.17
717.736	369.76
718.066	392.74
718.397	415.72
718.727	395.29
719.058	397.85
719.388	379.97
719.719	367.21
720.049	402.95
720.38	418.28
720.71	436.15
721.04	395.29
721.37	359.55
721.7	408.06
722.031	390.19
722.361	448.92
722.691	408.06
723.021	410.62
723.35	334.01
723.68	400.4
724.01	313.59
724.34	400.4
724.67	359.55
724.999	326.35
725.329	374.87
725.658	377.42
725.988	385.08
726.317	415.72
726.647	385.08
726.976	382.53
727.306	446.36
727.635	438.7
727.964	392.74
728.293	387.63
728.622	397.85
728.952	413.17
729.281	374.87
729.61	387.63
729.939	390.19
730.267	390.19
730.596	423.38
730.925	377.42
731.254	405.51
731.583	436.15
731.911	410.62
732.24	362.1
732.568	364.65
732.897	377.42
733.225	362.1
733.554	420.83
733.882	382.53
734.21	346.78
734.539	379.97
734.867	372.31
735.195	339.12
735.523	443.81
735.851	308.48
736.179	369.76
736.507	331.46
736.835	328.91
737.163	290.61
737.491	334.01
737.819	364.65
738.147	336.57
738.474	374.87
738.802	387.63
739.13	387.63
739.457	367.21
739.785	339.12
740.112	387.63
740.44	359.55
740.767	395.29
741.094	364.65
741.422	344.23
741.749	369.76
742.076	400.4
742.403	408.06
742.73	351.89
743.057	351.89
743.384	369.76
743.711	339.12
744.038	339.12
744.365	443.81
744.692	367.21
745.018	415.72
745.345	436.15
745.672	390.19
745.998	341.67
746.325	369.76
746.651	362.1
746.978	326.35
747.304	400.4
747.631	356.99
747.957	323.8
748.283	443.81
748.61	354.44
748.936	395.29
749.262	405.51
749.588	402.95
749.914	351.89
750.24	392.74
750.566	418.28
750.892	413.17
751.218	362.1
751.543	372.31
751.869	377.42
752.195	405.51
752.521	295.71
752.846	336.57
753.172	387.63
753.497	395.29
753.823	423.38
754.148	344.23
754.473	328.91
754.799	364.65
755.124	372.31
755.449	392.74
755.774	443.81
756.1	420.83
756.425	387.63
756.75	356.99
757.075	397.85
757.4	499.98
757.724	415.72
758.049	379.97
758.374	359.55
758.699	354.44
759.024	354.44
759.348	387.63
759.673	405.51
759.997	298.27
760.322	331.46
760.646	362.1
760.971	385.08
761.295	413.17
761.619	364.65
761.944	356.99
762.268	377.42
762.592	392.74
762.916	418.28
763.24	372.31
763.564	344.23
763.888	313.59
764.212	408.06
764.536	390.19
764.86	423.38
765.184	408.06
765.508	418.28
765.831	410.62
766.155	609.78
766.478	397.85
766.802	420.83
767.126	405.51
767.449	354.44
767.772	377.42
768.096	364.65
768.419	431.04
768.742	418.28
769.066	392.74
769.389	415.72
769.712	408.06
770.035	400.4
770.358	436.15
770.681	428.49
771.004	413.17
771.327	344.23
771.65	334.01
771.972	367.21
772.295	400.4
772.618	428.49
772.941	351.89
773.263	362.1
773.586	349.33
773.908	379.97
774.231	400.4
774.553	341.67
774.875	356.99
775.198	369.76
775.52	374.87
775.842	349.33
776.164	356.99
776.487	334.01
776.809	349.33
777.131	392.74
777.453	379.97
777.775	318.69
778.096	362.1
778.418	379.97
778.74	362.1
779.062	385.08
779.384	425.94
779.705	392.74
780.027	334.01
780.348	351.89
780.67	326.35
780.991	382.53
781.313	362.1
781.634	413.17
781.955	356.99
782.277	379.97
782.598	408.06
782.919	367.21
783.24	305.93
783.561	339.12
783.882	318.69
784.203	395.29
784.524	415.72
784.845	359.55
785.166	369.76
785.487	379.97
785.807	413.17
786.128	397.85
786.449	303.37
786.769	339.12
787.09	410.62
787.41	356.99
787.731	385.08
788.051	336.57
788.372	390.19
788.692	364.65
789.012	415.72
789.332	392.74
789.653	425.94
789.973	390.19
790.293	397.85
790.613	418.28
790.933	377.42
791.253	382.53
791.573	385.08
791.893	410.62
792.212	374.87
792.532	374.87
792.852	321.25
793.171	367.21
793.491	354.44
793.811	351.89
794.13	367.21
794.45	372.31
794.769	385.08
795.088	356.99
795.408	295.71
795.727	328.91
796.046	331.46
796.365	351.89
796.684	308.48
797.004	395.29
797.323	364.65
797.642	341.67
797.96	377.42
798.279	374.87
798.598	372.31
798.917	356.99
799.236	356.99
799.554	359.55
799.873	423.38
800.192	402.95
800.51	420.83
800.829	410.62
801.147	308.48
801.466	408.06
801.784	408.06
802.102	431.04
802.421	323.8
802.739	415.72
803.057	425.94
803.375	395.29
803.693	349.33
804.011	377.42
804.329	387.63
804.647	413.17
804.965	331.46
805.283	349.33
805.601	461.68
805.918	420.83
806.236	351.89
806.554	392.74
806.871	323.8
807.189	374.87
807.507	339.12
807.824	341.67
808.141	311.03
808.459	367.21
808.776	377.42
809.093	390.19
809.411	382.53
809.728	382.53
810.045	385.08
810.362	379.97
810.679	405.51
810.996	402.95
811.313	402.95
811.63	331.46
811.947	313.59
812.264	397.85
812.58	402.95
812.897	372.31
813.214	464.24
813.53	443.81
813.847	395.29
814.163	346.78
814.48	382.53
814.796	326.35
815.113	305.93
815.429	397.85
815.745	374.87
816.061	372.31
816.378	374.87
816.694	374.87
817.01	436.15
817.326	362.1
817.642	418.28
817.958	428.49
818.274	341.67
818.59	336.57
818.905	377.42
819.221	354.44
819.537	349.33
819.852	367.21
820.168	385.08
820.484	431.04
820.799	418.28
821.115	334.01
821.43	339.12
821.745	382.53
822.061	369.76
822.376	425.94
822.691	362.1
823.006	364.65
823.322	382.53
823.637	339.12
823.952	346.78
824.267	336.57
824.582	351.89
824.897	423.38
825.211	379.97
825.526	431.04
825.841	390.19
826.156	377.42
826.47	408.06
826.785	420.83
827.1	298.27
827.414	318.69
827.729	379.97
828.043	339.12
828.357	400.4
828.672	313.59
828.986	344.23
829.3	313.59
829.614	431.04
829.929	354.44
830.243	326.35
830.557	341.67
830.871	433.6
831.185	364.65
831.499	433.6
831.812	364.65
832.126	295.71
832.44	362.1
832.754	402.95
833.067	397.85
833.381	377.42
833.695	441.26
834.008	377.42
834.322	377.42
834.635	410.62
834.948	390.19
835.262	431.04
835.575	385.08
835.888	364.65
836.201	395.29
836.515	395.29
836.828	318.69
837.141	402.95
837.454	382.53
837.767	408.06
838.08	433.6
838.392	400.4
838.705	428.49
839.018	413.17
839.331	379.97
839.643	346.78
839.956	431.04
840.269	425.94
840.581	372.31
840.894	410.62
841.206	390.19
841.519	563.82
841.831	377.42
842.143	377.42
842.455	374.87
842.768	374.87
843.08	405.51
843.392	369.76
843.704	344.23
844.016	326.35
844.328	377.42
844.64	326.35
844.952	369.76
845.263	372.31
845.575	379.97
845.887	390.19
846.199	410.62
846.51	359.55
846.822	372.31
847.133	415.72
847.445	303.37
847.756	379.97
848.068	405.51
848.379	392.74
848.69	428.49
849.002	387.63
849.313	395.29
849.624	331.46
849.935	321.25
850.246	415.72
850.557	359.55
850.868	331.46
851.179	387.63
851.49	362.1
851.801	489.77
852.112	425.94
852.422	326.35
852.733	420.83
853.044	433.6
853.354	349.33
853.665	372.31
853.975	334.01
854.286	272.73
854.596	402.95
854.906	349.33
855.217	397.85
855.527	346.78
855.837	362.1
856.147	356.99
856.458	395.29
856.768	364.65
857.078	349.33
857.388	402.95
857.698	379.97
858.007	402.95
858.317	413.17
858.627	354.44
858.937	382.53
859.246	344.23
859.556	377.42
859.866	377.42
860.175	387.63
860.485	474.45
860.794	408.06
861.104	374.87
861.413	410.62
861.722	436.15
862.032	362.1
862.341	395.29
862.65	392.74
862.959	379.97
863.268	372.31
863.577	356.99
863.886	387.63
864.195	438.7
864.504	374.87
864.813	321.25
865.122	410.62
865.43	415.72
865.739	420.83
866.048	438.7
866.356	454.02
866.665	436.15
866.973	402.95
867.282	385.08
867.59	328.91
867.899	382.53
868.207	351.89
868.515	382.53
868.823	377.42
869.132	344.23
869.44	418.28
869.748	341.67
870.056	367.21
870.364	354.44
870.672	397.85
870.98	405.51
871.288	351.89
871.595	405.51
871.903	367.21
872.211	349.33
872.518	413.17
872.826	397.85
873.134	356.99
873.441	344.23
873.749	374.87
874.056	346.78
874.363	344.23
874.671	369.76
874.978	387.63
875.285	321.25
875.592	364.65
875.9	356.99
876.207	395.29
876.514	354.44
876.821	351.89
877.128	372.31
877.435	374.87
877.741	382.53
878.048	418.28
878.355	362.1
878.662	402.95
878.968	392.74
879.275	336.57
879.582	339.12
879.888	397.85
880.195	377.42
880.501	413.17
880.807	379.97
881.114	369.76
881.42	323.8
881.726	379.97
882.032	367.21
882.339	364.65
882.645	369.76
882.951	428.49
883.257	379.97
883.563	395.29
883.869	387.63
884.174	339.12
884.48	431.04
884.786	395.29
885.092	377.42
885.397	328.91
885.703	374.87
886.009	395.29
886.314	392.74
886.62	395.29
886.925	318.69
887.231	362.1
887.536	356.99
887.841	428.49
888.146	336.57
888.452	379.97
888.757	489.77
889.062	379.97
889.367	410.62
889.672	359.55
889.977	354.44
890.282	385.08
890.587	369.76
890.892	328.91
891.196	385.08
891.501	413.17
891.806	377.42
892.11	410.62
892.415	349.33
892.72	362.1
893.024	341.67
893.328	451.47
893.633	334.01
893.937	400.4
894.242	392.74
894.546	305.93
894.85	364.65
895.154	397.85
895.458	441.26
895.762	428.49
896.066	369.76
896.37	377.42
896.674	395.29
896.978	395.29
897.282	257.41
897.586	323.8
897.89	379.97
898.193	423.38
898.497	408.06
898.801	425.94
899.104	433.6
899.408	405.51
899.711	382.53
900.014	349.33
900.318	336.57
900.621	423.38
900.924	402.95
901.228	372.31
901.531	354.44
901.834	405.51
902.137	428.49
902.44	464.24
902.743	397.85
903.046	428.49
903.349	372.31
903.652	374.87
903.955	316.14
904.257	308.48
904.56	415.72
904.863	433.6
905.165	392.74
905.468	364.65
905.77	369.76
906.073	331.46
906.375	377.42
906.678	351.89
906.98	382.53
907.282	349.33
907.584	372.31
907.887	385.08
908.189	336.57
908.491	356.99
908.793	385.08
909.095	418.28
909.397	372.31
909.699	318.69
910.001	451.47
910.302	382.53
910.604	420.83
910.906	372.31
911.208	461.68
911.509	374.87
911.811	423.38
912.112	400.4
912.414	331.46
912.715	379.97
913.017	341.67
913.318	433.6
913.619	318.69
913.92	387.63
914.222	369.76
914.523	408.06
914.824	418.28
915.125	436.15
915.426	420.83
915.727	410.62
916.028	354.44
916.329	364.65
916.63	346.78
916.93	410.62
917.231	369.76
917.532	300.82
917.832	290.61
918.133	405.51
918.434	420.83
918.734	390.19
919.034	397.85
919.335	382.53
919.635	351.89
919.935	328.91
920.236	349.33
920.536	344.23
920.836	423.38
921.136	295.71
921.436	502.54
921.736	456.58
922.036	377.42
922.336	387.63
922.636	420.83
922.936	385.08
923.236	387.63
923.535	374.87
923.835	374.87
924.135	415.72
924.434	382.53
924.734	446.36
925.033	382.53
925.333	341.67
925.632	362.1
925.932	331.46
926.231	392.74
926.53	377.42
926.83	413.17
927.129	377.42
927.428	341.67
927.727	367.21
928.026	344.23
928.325	336.57
928.624	390.19
928.923	397.85
929.222	385.08
929.52	413.17
929.819	390.19
930.118	405.51
930.417	410.62
930.715	351.89
931.014	346.78
931.312	410.62
931.611	387.63
931.909	431.04
932.207	408.06
932.506	359.55
932.804	390.19
933.102	395.29
933.401	318.69
933.699	354.44
933.997	354.44
934.295	395.29
934.593	382.53
934.891	354.44
935.189	377.42
935.487	382.53
935.784	382.53
936.082	351.89
936.38	367.21
936.677	369.76
936.975	413.17
937.273	433.6
937.57	362.1
937.868	420.83
938.165	395.29
938.463	356.99
938.76	397.85
939.057	367.21
939.354	308.48
939.652	341.67
939.949	359.55
940.246	385.08
940.543	349.33
940.84	374.87
941.137	377.42
941.434	400.4
941.731	413.17
942.028	390.19
942.324	367.21
942.621	415.72
942.918	344.23
943.214	433.6
943.511	328.91
943.807	415.72
944.104	372.31
944.4	362.1
944.697	387.63
944.993	313.59
945.29	346.78
945.586	290.61
945.882	387.63
946.178	364.65
946.474	356.99
946.77	323.8
947.066	341.67
947.362	364.65
947.658	372.31
947.954	359.55
948.25	377.42
948.546	367.21
948.842	387.63
949.137	418.28
949.433	354.44
949.729	436.15
950.024	415.72
950.32	298.27
950.615	400.4
950.91	402.95
951.206	433.6
951.501	285.5
951.796	354.44
952.092	354.44
952.387	362.1
952.682	402.95
952.977	364.65
953.272	321.25
953.567	387.63
953.862	372.31
954.157	377.42
954.452	382.53
954.747	402.95
955.041	395.29
955.336	356.99
955.631	318.69
955.925	402.95
956.22	382.53
956.514	351.89
956.809	242.09
957.103	354.44
957.398	356.99
957.692	311.03
957.986	387.63
958.281	356.99
958.575	305.93
958.869	334.01
959.163	387.63
959.457	400.4
959.751	359.55
960.045	334.01
960.339	418.28
960.633	303.37
960.927	405.51
961.221	339.12
961.514	341.67
961.808	405.51
962.102	362.1
962.395	336.57
962.689	395.29
962.982	413.17
963.276	346.78
963.569	356.99
963.862	354.44
964.156	367.21
964.449	372.31
964.742	339.12
965.035	374.87
965.328	433.6
965.622	379.97
965.915	305.93
966.208	334.01
966.5	392.74
966.793	356.99
967.086	425.94
967.379	400.4
967.672	377.42
967.964	438.7
968.257	359.55
968.55	402.95
968.842	374.87
969.135	390.19
969.427	420.83
969.72	359.55
970.012	331.46
970.304	397.85
970.597	420.83
970.889	374.87
971.181	374.87
971.473	372.31
971.765	369.76
972.057	471.9
972.349	382.53
972.641	377.42
972.933	341.67
973.225	390.19
973.517	390.19
973.809	362.1
974.1	390.19
974.392	382.53
974.684	308.48
974.975	323.8
975.267	423.38
975.558	339.12
975.85	402.95
976.141	425.94
976.432	423.38
976.724	367.21
977.015	369.76
977.306	418.28
977.597	423.38
977.888	311.03
978.179	334.01
978.47	334.01
978.761	420.83
979.052	377.42
979.343	331.46
979.634	372.31
979.925	367.21
980.215	379.97
980.506	400.4
980.797	382.53
981.087	290.61
981.378	334.01
981.668	277.84
981.959	339.12
982.249	408.06
982.54	387.63
982.83	382.53
983.12	425.94
983.41	313.59
983.701	456.58
983.991	354.44
984.281	351.89
984.571	351.89
984.861	356.99
985.151	433.6
985.441	413.17
985.73	377.42
986.02	290.61
986.31	410.62
986.6	341.67
986.889	362.1
987.179	364.65
987.469	382.53
987.758	374.87
988.048	402.95
988.337	331.46
988.626	372.31
988.916	336.57
989.205	402.95
989.494	392.74
989.783	413.17
990.073	336.57
990.362	349.33
990.651	367.21
990.94	326.35
991.229	372.31
991.518	390.19
991.806	379.97
992.095	339.12
992.384	308.48
992.673	382.53
992.961	364.65
993.25	410.62
993.539	303.37
993.827	349.33
994.116	336.57
994.404	387.63
994.692	339.12
994.981	346.78
995.269	344.23
995.557	318.69
995.846	339.12
996.134	334.01
996.422	425.94
996.71	351.89
996.998	303.37
997.286	339.12
997.574	351.89
997.862	336.57
998.15	387.63
998.437	402.95
998.725	349.33
999.013	362.1
999.3	497.43
999.588	359.55
999.876	408.06
1000.163	405.51
1000.45	346.78
1000.738	372.31
1001.025	349.33
1001.313	349.33
1001.6	331.46
1001.887	328.91
1002.174	326.35
1002.461	359.55
1002.748	334.01
1003.036	362.1
1003.322	318.69
1003.609	385.08
1003.896	410.62
1004.183	443.81
1004.47	367.21
1004.757	390.19
1005.043	408.06
1005.33	364.65
1005.617	377.42
1005.903	369.76
1006.19	303.37
1006.476	349.33
1006.763	397.85
1007.049	436.15
1007.335	334.01
1007.622	336.57
1007.908	359.55
1008.194	308.48
1008.48	397.85
1008.766	454.02
1009.053	364.65
1009.339	303.37
1009.625	369.76
1009.91	318.69
1010.196	290.61
1010.482	382.53
1010.768	321.25
1011.054	369.76
1011.339	313.59
1011.625	372.31
1011.911	356.99
1012.196	377.42
1012.482	431.04
1012.767	397.85
1013.052	438.7
1013.338	379.97
1013.623	425.94
1013.908	431.04
1014.194	344.23
1014.479	364.65
1014.764	369.76
1015.049	372.31
1015.334	395.29
1015.619	331.46
1015.904	402.95
1016.189	395.29
1016.474	418.28
1016.758	382.53
1017.043	433.6
1017.328	382.53
1017.613	408.06
1017.897	410.62
1018.182	356.99
1018.466	331.46
1018.751	341.67
1019.035	369.76
1019.32	369.76
1019.604	369.76
1019.888	433.6
1020.172	433.6
1020.457	433.6
