Data from 2025-12-03_xpw_interference_micrometer_634_dark_FLMS141361__40__190.txt Node

Date: Wed Dec 03 15:50:03 MST 2025
User: james
Spectrometer: FLMS14136
Trigger mode: 0
Integration Time (sec): 1.000000E-1
Scans to average: 1
Electric dark correction enabled: true
Nonlinearity correction enabled: false
Boxcar width: 0
XAxis mode: Wavelengths
Number of Pixels in Spectrum: 2048
>>>>>Begin Spectral Data<<<<<
339.315	-42.77
339.697	-42.77
340.079	-42.77
340.461	-14.68
340.843	-91.28
341.225	-70.86
341.607	-78.52
341.989	-86.18
342.371	-60.64
342.752	-104.05
343.134	-83.62
343.516	-47.88
343.897	26.17
344.279	-1.92
344.661	-30
345.042	-9.58
345.423	90.01
345.805	102.77
346.186	123.2
346.567	79.79
346.949	151.29
347.33	189.59
347.711	222.78
348.092	222.78
348.473	215.12
348.854	245.76
349.235	296.83
349.616	261.08
349.997	250.87
350.378	324.92
350.758	248.32
351.139	314.7
351.52	358.11
351.9	409.18
352.281	347.9
352.661	391.31
353.042	429.61
353.422	406.63
353.803	360.66
354.183	340.24
354.563	442.37
354.943	391.31
355.324	383.65
355.704	386.2
356.084	381.09
356.464	391.31
356.844	406.63
357.224	373.43
357.603	353
357.983	345.34
358.363	406.63
358.743	363.22
359.122	312.15
359.502	368.32
359.882	414.29
360.261	409.18
360.641	424.5
361.02	368.32
361.399	411.73
361.779	404.07
362.158	370.88
362.537	327.47
362.916	345.34
363.296	340.24
363.675	393.86
364.054	386.2
364.433	330.02
364.812	434.71
365.19	381.09
365.569	363.22
365.948	373.43
366.327	309.6
366.705	347.9
367.084	330.02
367.463	398.97
367.841	363.22
368.22	370.88
368.598	335.13
368.977	345.34
369.355	345.34
369.733	337.68
370.111	340.24
370.49	327.47
370.868	388.75
371.246	296.83
371.624	319.81
372.002	427.05
372.38	309.6
372.758	340.24
373.136	330.02
373.513	406.63
373.891	342.79
374.269	340.24
374.646	360.66
375.024	406.63
375.402	424.5
375.779	419.39
376.157	314.7
376.534	340.24
376.911	353
377.289	358.11
377.666	314.7
378.043	404.07
378.42	375.98
378.797	414.29
379.175	442.37
379.552	409.18
379.929	378.54
380.305	322.36
380.682	378.54
381.059	421.95
381.436	324.92
381.813	324.92
382.189	404.07
382.566	421.95
382.943	416.84
383.319	398.97
383.696	301.94
384.072	337.68
384.448	432.16
384.825	383.65
385.201	365.77
385.577	322.36
385.953	365.77
386.329	360.66
386.706	465.35
387.082	409.18
387.458	353
387.834	424.5
388.209	355.56
388.585	383.65
388.961	330.02
389.337	398.97
389.713	450.03
390.088	414.29
390.464	414.29
390.839	396.41
391.215	370.88
391.59	345.34
391.966	424.5
392.341	444.93
392.716	347.9
393.092	411.73
393.467	393.86
393.842	404.07
394.217	378.54
394.592	365.77
394.967	421.95
395.342	393.86
395.717	424.5
396.092	442.37
396.467	373.43
396.841	360.66
397.216	393.86
397.591	393.86
397.965	406.63
398.34	363.22
398.714	345.34
399.089	342.79
399.463	312.15
399.838	429.61
400.212	419.39
400.586	414.29
400.961	383.65
401.335	312.15
401.709	319.81
402.083	355.56
402.457	398.97
402.831	429.61
403.205	414.29
403.579	386.2
403.953	398.97
404.326	432.16
404.7	411.73
405.074	404.07
405.447	404.07
405.821	432.16
406.195	457.69
406.568	360.66
406.942	419.39
407.315	388.75
407.688	442.37
408.062	393.86
408.435	406.63
408.808	381.09
409.181	437.27
409.554	396.41
409.927	373.43
410.3	388.75
410.673	386.2
411.046	419.39
411.419	327.47
411.792	291.72
412.165	360.66
412.537	404.07
412.91	365.77
413.283	335.13
413.655	404.07
414.028	391.31
414.4	398.97
414.773	434.71
415.145	398.97
415.517	373.43
415.889	391.31
416.262	427.05
416.634	444.93
417.006	462.8
417.378	450.03
417.75	391.31
418.122	383.65
418.494	393.86
418.866	442.37
419.238	406.63
419.609	411.73
419.981	419.39
420.353	378.54
420.725	375.98
421.096	429.61
421.468	396.41
421.839	503.65
422.211	427.05
422.582	424.5
422.953	340.24
423.325	398.97
423.696	437.27
424.067	455.14
424.438	465.35
424.809	370.88
425.18	381.09
425.551	444.93
425.922	444.93
426.293	414.29
426.664	386.2
427.035	411.73
427.406	388.75
427.776	353
428.147	429.61
428.518	414.29
428.888	416.84
429.259	421.95
429.629	455.14
429.999	396.41
430.37	363.22
430.74	409.18
431.11	452.59
431.481	465.35
431.851	388.75
432.221	353
432.591	437.27
432.961	457.69
433.331	414.29
433.701	421.95
434.071	363.22
434.441	404.07
434.81	378.54
435.18	393.86
435.55	386.2
435.919	429.61
436.289	398.97
436.658	375.98
437.028	398.97
437.397	460.25
437.767	421.95
438.136	432.16
438.505	393.86
438.875	375.98
439.244	478.12
439.613	442.37
439.982	421.95
440.351	404.07
440.72	419.39
441.089	414.29
441.458	381.09
441.827	386.2
442.196	368.32
442.564	483.23
442.933	439.82
443.302	442.37
443.67	439.82
444.039	381.09
444.407	447.48
444.776	421.95
445.144	452.59
445.513	432.16
445.881	488.33
446.249	368.32
446.617	375.98
446.986	406.63
447.354	406.63
447.722	404.07
448.09	427.05
448.458	419.39
448.826	521.53
449.194	404.07
449.561	404.07
449.929	434.71
450.297	416.84
450.665	452.59
451.032	424.5
451.4	450.03
451.767	368.32
452.135	388.75
452.502	386.2
452.87	378.54
453.237	421.95
453.604	375.98
453.971	437.27
454.339	460.25
454.706	396.41
455.073	350.45
455.44	434.71
455.807	470.46
456.174	503.65
456.541	424.5
456.908	396.41
457.274	388.75
457.641	416.84
458.008	396.41
458.374	388.75
458.741	383.65
459.108	391.31
459.474	383.65
459.841	439.82
460.207	467.91
460.573	353
460.94	391.31
461.306	388.75
461.672	421.95
462.038	383.65
462.404	388.75
462.771	421.95
463.137	375.98
463.503	406.63
463.868	434.71
464.234	432.16
464.6	370.88
464.966	414.29
465.332	378.54
465.697	450.03
466.063	319.81
466.429	330.02
466.794	378.54
467.16	427.05
467.525	345.34
467.89	375.98
468.256	335.13
468.621	411.73
468.986	419.39
469.351	404.07
469.717	424.5
470.082	332.58
470.447	360.66
470.812	442.37
471.177	388.75
471.542	455.14
471.906	363.22
472.271	396.41
472.636	457.69
473.001	421.95
473.365	470.46
473.73	450.03
474.094	414.29
474.459	450.03
474.823	462.8
475.188	437.27
475.552	416.84
475.917	404.07
476.281	391.31
476.645	406.63
477.009	404.07
477.373	460.25
477.737	383.65
478.101	375.98
478.465	404.07
478.829	363.22
479.193	447.48
479.557	414.29
479.921	424.5
480.284	393.86
480.648	460.25
481.012	414.29
481.375	383.65
481.739	424.5
482.102	342.79
482.466	381.09
482.829	429.61
483.193	368.32
483.556	414.29
483.919	485.78
484.282	467.91
484.645	442.37
485.009	391.31
485.372	337.68
485.735	419.39
486.098	439.82
486.46	488.33
486.823	452.59
487.186	462.8
487.549	370.88
487.912	432.16
488.274	409.18
488.637	437.27
488.999	350.45
489.362	391.31
489.724	396.41
490.087	391.31
490.449	444.93
490.811	457.69
491.174	345.34
491.536	434.71
491.898	427.05
492.26	404.07
492.622	485.78
492.984	393.86
493.346	393.86
493.708	409.18
494.07	439.82
494.432	424.5
494.794	368.32
495.155	429.61
495.517	375.98
495.879	411.73
496.24	429.61
496.602	447.48
496.963	411.73
497.325	388.75
497.686	421.95
498.048	442.37
498.409	414.29
498.77	411.73
499.131	365.77
499.492	421.95
499.854	421.95
500.215	388.75
500.576	462.8
500.937	368.32
501.298	401.52
501.658	427.05
502.019	508.76
502.38	391.31
502.741	411.73
503.101	432.16
503.462	368.32
503.823	480.67
504.183	442.37
504.543	340.24
504.904	462.8
505.264	473.01
505.625	437.27
505.985	401.52
506.345	447.48
506.705	360.66
507.065	416.84
507.426	414.29
507.786	381.09
508.146	434.71
508.505	462.8
508.865	378.54
509.225	460.25
509.585	549.61
509.945	485.78
510.304	432.16
510.664	457.69
511.024	437.27
511.383	470.46
511.743	470.46
512.102	452.59
512.462	388.75
512.821	429.61
513.18	473.01
513.539	427.05
513.899	421.95
514.258	427.05
514.617	447.48
514.976	467.91
515.335	450.03
515.694	452.59
516.053	409.18
516.412	363.22
516.771	429.61
517.129	437.27
517.488	416.84
517.847	406.63
518.205	450.03
518.564	421.95
518.922	378.54
519.281	378.54
519.639	485.78
519.998	457.69
520.356	411.73
520.714	391.31
521.073	432.16
521.431	404.07
521.789	429.61
522.147	416.84
522.505	401.52
522.863	416.84
523.221	434.71
523.579	427.05
523.937	475.57
524.295	416.84
524.652	450.03
525.01	404.07
525.368	480.67
525.725	383.65
526.083	424.5
526.44	396.41
526.798	404.07
527.155	473.01
527.513	475.57
527.87	495.99
528.227	409.18
528.584	434.71
528.942	375.98
529.299	404.07
529.656	358.11
530.013	427.05
530.37	414.29
530.727	404.07
531.083	347.9
531.44	365.77
531.797	419.39
532.154	368.32
532.511	485.78
532.867	432.16
533.224	434.71
533.58	457.69
533.937	401.52
534.293	414.29
534.65	421.95
535.006	444.93
535.362	450.03
535.718	411.73
536.075	368.32
536.431	381.09
536.787	398.97
537.143	416.84
537.499	365.77
537.855	452.59
538.211	432.16
538.567	355.56
538.923	353
539.278	429.61
539.634	427.05
539.99	401.52
540.345	409.18
540.701	378.54
541.056	396.41
541.412	388.75
541.767	370.88
542.123	442.37
542.478	457.69
542.833	404.07
543.188	416.84
543.544	381.09
543.899	467.91
544.254	429.61
544.609	358.11
544.964	444.93
545.319	416.84
545.674	398.97
546.029	375.98
546.383	340.24
546.738	342.79
547.093	388.75
547.447	391.31
547.802	414.29
548.157	452.59
548.511	373.43
548.866	427.05
549.22	360.66
549.574	409.18
549.929	467.91
550.283	414.29
550.637	383.65
550.991	478.12
551.345	345.34
551.699	409.18
552.053	363.22
552.407	358.11
552.761	409.18
553.115	383.65
553.469	462.8
553.823	439.82
554.176	467.91
554.53	396.41
554.884	424.5
555.237	667.07
555.591	473.01
555.944	429.61
556.298	301.94
556.651	378.54
557.005	411.73
557.358	375.98
557.711	391.31
558.064	393.86
558.417	437.27
558.771	442.37
559.124	460.25
559.477	345.34
559.83	378.54
560.182	424.5
560.535	564.93
560.888	391.31
561.241	450.03
561.594	401.52
561.946	409.18
562.299	416.84
562.651	427.05
563.004	386.2
563.356	427.05
563.709	406.63
564.061	373.43
564.413	419.39
564.766	450.03
565.118	460.25
565.47	378.54
565.822	393.86
566.174	401.52
566.526	381.09
566.878	457.69
567.23	381.09
567.582	388.75
567.934	437.27
568.286	416.84
568.638	388.75
568.989	488.33
569.341	432.16
569.693	470.46
570.044	424.5
570.396	375.98
570.747	465.35
571.098	391.31
571.45	503.65
571.801	327.47
572.152	383.65
572.504	404.07
572.855	427.05
573.206	360.66
573.557	478.12
573.908	480.67
574.259	368.32
574.61	419.39
574.961	442.37
575.311	450.03
575.662	401.52
576.013	386.2
576.364	411.73
576.714	391.31
577.065	365.77
577.415	401.52
577.766	368.32
578.116	406.63
578.467	355.56
578.817	383.65
579.167	396.41
579.518	427.05
579.868	404.07
580.218	444.93
580.568	455.14
580.918	444.93
581.268	460.25
581.618	475.57
581.968	398.97
582.318	455.14
582.668	470.46
583.017	391.31
583.367	470.46
583.717	427.05
584.066	439.82
584.416	401.52
584.765	473.01
585.115	391.31
585.464	419.39
585.814	421.95
586.163	375.98
586.512	447.48
586.862	462.8
587.211	421.95
587.56	432.16
587.909	450.03
588.258	460.25
588.607	473.01
588.956	416.84
589.305	411.73
589.654	386.2
590.002	416.84
590.351	427.05
590.7	398.97
591.048	457.69
591.397	495.99
591.746	409.18
592.094	439.82
592.443	437.27
592.791	450.03
593.139	470.46
593.488	411.73
593.836	447.48
594.184	424.5
594.532	401.52
594.88	478.12
595.228	427.05
595.576	409.18
595.924	368.32
596.272	421.95
596.62	414.29
596.968	378.54
597.316	416.84
597.664	432.16
598.011	406.63
598.359	414.29
598.706	401.52
599.054	409.18
599.402	411.73
599.749	475.57
600.096	470.46
600.444	473.01
600.791	411.73
601.138	406.63
601.485	404.07
601.833	386.2
602.18	462.8
602.527	411.73
602.874	429.61
603.221	501.1
603.568	383.65
603.914	396.41
604.261	396.41
604.608	432.16
604.955	447.48
605.301	465.35
605.648	404.07
605.995	388.75
606.341	350.45
606.688	414.29
607.034	465.35
607.38	414.29
607.727	391.31
608.073	381.09
608.419	444.93
608.765	393.86
609.112	414.29
609.458	406.63
609.804	529.19
610.15	455.14
610.496	424.5
610.842	347.9
611.187	383.65
611.533	424.5
611.879	414.29
612.225	373.43
612.57	411.73
612.916	439.82
613.261	434.71
613.607	444.93
613.952	404.07
614.298	370.88
614.643	406.63
614.989	424.5
615.334	455.14
615.679	424.5
616.024	432.16
616.369	424.5
616.714	434.71
617.059	388.75
617.404	480.67
617.749	411.73
618.094	460.25
618.439	485.78
618.784	473.01
619.129	442.37
619.473	355.56
619.818	421.95
620.163	424.5
620.507	447.48
620.852	432.16
621.196	495.99
621.54	365.77
621.885	424.5
622.229	378.54
622.573	432.16
622.918	414.29
623.262	470.46
623.606	434.71
623.95	381.09
624.294	360.66
624.638	398.97
624.982	437.27
625.326	444.93
625.67	340.24
626.013	427.05
626.357	401.52
626.701	419.39
627.044	419.39
627.388	381.09
627.731	465.35
628.075	524.08
628.418	473.01
628.762	411.73
629.105	370.88
629.448	414.29
629.792	467.91
630.135	324.92
630.478	391.31
630.821	411.73
631.164	404.07
631.507	414.29
631.85	429.61
632.193	447.48
632.536	386.2
632.879	393.86
633.221	347.9
633.564	381.09
633.907	424.5
634.249	460.25
634.592	383.65
634.935	411.73
635.277	396.41
635.619	388.75
635.962	401.52
636.304	434.71
636.646	411.73
636.989	455.14
637.331	427.05
637.673	498.55
638.015	414.29
638.357	447.48
638.699	419.39
639.041	414.29
639.383	419.39
639.725	460.25
640.067	439.82
640.408	478.12
640.75	444.93
641.092	416.84
641.433	330.02
641.775	401.52
642.116	414.29
642.458	383.65
642.799	342.79
643.141	355.56
643.482	340.24
643.823	347.9
644.164	450.03
644.506	526.63
644.847	429.61
645.188	386.2
645.529	391.31
645.87	391.31
646.211	363.22
646.552	411.73
646.893	434.71
647.233	421.95
647.574	365.77
647.915	414.29
648.255	437.27
648.596	393.86
648.937	447.48
649.277	434.71
649.618	398.97
649.958	465.35
650.298	444.93
650.639	388.75
650.979	393.86
651.319	406.63
651.659	444.93
651.999	383.65
652.339	391.31
652.679	393.86
653.019	424.5
653.359	450.03
653.699	429.61
654.039	442.37
654.379	455.14
654.719	393.86
655.058	457.69
655.398	401.52
655.737	508.76
656.077	480.67
656.416	490.89
656.756	409.18
657.095	406.63
657.435	419.39
657.774	370.88
658.113	391.31
658.452	381.09
658.792	409.18
659.131	375.98
659.47	421.95
659.809	396.41
660.148	452.59
660.487	421.95
660.826	358.11
661.164	427.05
661.503	455.14
661.842	386.2
662.181	386.2
662.519	447.48
662.858	383.65
663.196	429.61
663.535	373.43
663.873	398.97
664.212	465.35
664.55	404.07
664.888	432.16
665.226	337.68
665.565	396.41
665.903	613.45
666.241	460.25
666.579	396.41
666.917	421.95
667.255	353
667.593	467.91
667.931	462.8
668.268	393.86
668.606	396.41
668.944	424.5
669.282	414.29
669.619	473.01
669.957	439.82
670.294	327.47
670.632	424.5
670.969	409.18
671.307	355.56
671.644	508.76
671.981	421.95
672.318	470.46
672.656	447.48
672.993	450.03
673.33	409.18
673.667	411.73
674.004	411.73
674.341	429.61
674.678	365.77
675.015	432.16
675.351	432.16
675.688	421.95
676.025	381.09
676.362	404.07
676.698	401.52
677.035	416.84
677.371	375.98
677.708	386.2
678.044	434.71
678.38	432.16
678.717	434.71
679.053	460.25
679.389	398.97
679.725	404.07
680.062	421.95
680.398	409.18
680.734	381.09
681.07	427.05
681.406	419.39
681.742	350.45
682.077	386.2
682.413	411.73
682.749	378.54
683.085	406.63
683.42	381.09
683.756	373.43
684.091	381.09
684.427	386.2
684.762	398.97
685.098	406.63
685.433	419.39
685.768	427.05
686.104	378.54
686.439	365.77
686.774	337.68
687.109	360.66
687.444	439.82
687.779	391.31
688.114	363.22
688.449	416.84
688.784	411.73
689.119	370.88
689.454	432.16
689.789	398.97
690.123	368.32
690.458	421.95
690.792	421.95
691.127	355.56
691.461	365.77
691.796	355.56
692.13	355.56
692.465	396.41
692.799	373.43
693.133	383.65
693.467	393.86
693.802	424.5
694.136	383.65
694.47	368.32
694.804	424.5
695.138	388.75
695.472	414.29
695.806	424.5
696.139	381.09
696.473	393.86
696.807	386.2
697.141	450.03
697.474	388.75
697.808	330.02
698.141	368.32
698.475	383.65
698.808	355.56
699.142	406.63
699.475	391.31
699.808	432.16
700.142	409.18
700.475	439.82
700.808	398.97
701.141	432.16
701.474	421.95
701.807	396.41
702.14	401.52
702.473	396.41
702.806	375.98
703.139	401.52
703.472	409.18
703.804	452.59
704.137	398.97
704.47	388.75
704.802	335.13
705.135	406.63
705.467	401.52
705.8	386.2
706.132	386.2
706.464	414.29
706.797	434.71
707.129	447.48
707.461	414.29
707.793	470.46
708.125	368.32
708.457	460.25
708.789	409.18
709.121	455.14
709.453	411.73
709.785	406.63
710.117	432.16
710.449	350.45
710.781	332.58
711.112	386.2
711.444	398.97
711.775	401.52
712.107	457.69
712.438	393.86
712.77	450.03
713.101	442.37
713.433	370.88
713.764	383.65
714.095	398.97
714.426	340.24
714.757	452.59
715.089	467.91
715.42	363.22
715.751	396.41
716.082	411.73
716.412	427.05
716.743	419.39
717.074	383.65
717.405	485.78
717.736	432.16
718.066	460.25
718.397	427.05
718.727	450.03
719.058	434.71
719.388	370.88
719.719	386.2
720.049	419.39
720.38	447.48
720.71	393.86
721.04	365.77
721.37	409.18
721.7	401.52
722.031	383.65
722.361	444.93
722.691	434.71
723.021	355.56
723.35	447.48
723.68	378.54
724.01	342.79
724.34	393.86
724.67	480.67
724.999	337.68
725.329	406.63
725.658	409.18
725.988	398.97
726.317	416.84
726.647	447.48
726.976	444.93
727.306	437.27
727.635	488.33
727.964	429.61
728.293	547.06
728.622	353
728.952	414.29
729.281	368.32
729.61	406.63
729.939	434.71
730.267	409.18
730.596	388.75
730.925	406.63
731.254	450.03
731.583	439.82
731.911	360.66
732.24	437.27
732.568	388.75
732.897	381.09
733.225	432.16
733.554	442.37
733.882	353
734.21	314.7
734.539	421.95
734.867	391.31
735.195	386.2
735.523	439.82
735.851	388.75
736.179	427.05
736.507	386.2
736.835	398.97
737.163	432.16
737.491	411.73
737.819	373.43
738.147	358.11
738.474	381.09
738.802	350.45
739.13	416.84
739.457	353
739.785	473.01
740.112	442.37
740.44	427.05
740.767	419.39
741.094	414.29
741.422	386.2
741.749	391.31
742.076	455.14
742.403	452.59
742.73	429.61
743.057	450.03
743.384	370.88
743.711	383.65
744.038	370.88
744.365	447.48
744.692	416.84
745.018	375.98
745.345	419.39
745.672	401.52
745.998	414.29
746.325	312.15
746.651	363.22
746.978	411.73
747.304	406.63
747.631	368.32
747.957	398.97
748.283	404.07
748.61	391.31
748.936	409.18
749.262	432.16
749.588	406.63
749.914	378.54
750.24	355.56
750.566	421.95
750.892	365.77
751.218	439.82
751.543	427.05
751.869	388.75
752.195	467.91
752.521	383.65
752.846	406.63
753.172	439.82
753.497	467.91
753.823	465.35
754.148	322.36
754.473	347.9
754.799	437.27
755.124	378.54
755.449	388.75
755.774	327.47
756.1	442.37
756.425	444.93
756.75	416.84
757.075	391.31
757.4	539.4
757.724	437.27
758.049	465.35
758.374	404.07
758.699	375.98
759.024	434.71
759.348	373.43
759.673	378.54
759.997	404.07
760.322	393.86
760.646	419.39
760.971	419.39
761.295	478.12
761.619	455.14
761.944	450.03
762.268	365.77
762.592	462.8
762.916	414.29
763.24	439.82
763.564	365.77
763.888	404.07
764.212	391.31
764.536	429.61
764.86	411.73
765.184	414.29
765.508	347.9
765.831	330.02
766.155	656.86
766.478	401.52
766.802	434.71
767.126	340.24
767.449	432.16
767.772	442.37
768.096	416.84
768.419	398.97
768.742	365.77
769.066	391.31
769.389	391.31
769.712	353
770.035	437.27
770.358	434.71
770.681	386.2
771.004	432.16
771.327	358.11
771.65	404.07
771.972	414.29
772.295	383.65
772.618	411.73
772.941	391.31
773.263	342.79
773.586	378.54
773.908	383.65
774.231	452.59
774.553	411.73
774.875	444.93
775.198	457.69
775.52	450.03
775.842	406.63
776.164	406.63
776.487	419.39
776.809	470.46
777.131	416.84
777.453	393.86
777.775	378.54
778.096	335.13
778.418	386.2
778.74	470.46
779.062	404.07
779.384	335.13
779.705	444.93
780.027	475.57
780.348	411.73
780.67	398.97
780.991	383.65
781.313	404.07
781.634	429.61
781.955	401.52
782.277	416.84
782.598	409.18
782.919	409.18
783.24	421.95
783.561	503.65
783.882	404.07
784.203	401.52
784.524	375.98
784.845	381.09
785.166	350.45
785.487	409.18
785.807	442.37
786.128	347.9
786.449	360.66
786.769	355.56
787.09	350.45
787.41	427.05
787.731	355.56
788.051	411.73
788.372	434.71
788.692	421.95
789.012	465.35
789.332	398.97
789.653	381.09
789.973	460.25
790.293	427.05
790.613	347.9
790.933	396.41
791.253	340.24
791.573	416.84
791.893	383.65
792.212	421.95
792.532	444.93
792.852	411.73
793.171	378.54
793.491	419.39
793.811	427.05
794.13	409.18
794.45	375.98
794.769	391.31
795.088	299.38
795.408	419.39
795.727	427.05
796.046	393.86
796.365	365.77
796.684	401.52
797.004	386.2
797.323	383.65
797.642	419.39
797.96	424.5
798.279	314.7
798.598	363.22
798.917	419.39
799.236	442.37
799.554	347.9
799.873	342.79
800.192	337.68
800.51	375.98
800.829	416.84
801.147	411.73
801.466	414.29
801.784	396.41
802.102	460.25
802.421	383.65
802.739	447.48
803.057	465.35
803.375	383.65
803.693	447.48
804.011	450.03
804.329	419.39
804.647	388.75
804.965	358.11
805.283	368.32
805.601	508.76
805.918	416.84
806.236	396.41
806.554	386.2
806.871	406.63
807.189	378.54
807.507	434.71
807.824	378.54
808.141	378.54
808.459	398.97
808.776	401.52
809.093	398.97
809.411	421.95
809.728	340.24
810.045	488.33
810.362	452.59
810.679	340.24
810.996	386.2
811.313	365.77
811.63	414.29
811.947	391.31
812.264	360.66
812.58	414.29
812.897	393.86
813.214	444.93
813.53	442.37
813.847	421.95
814.163	434.71
814.48	419.39
814.796	444.93
815.113	462.8
815.429	437.27
815.745	388.75
816.061	391.31
816.378	388.75
816.694	442.37
817.01	373.43
817.326	421.95
817.642	401.52
817.958	381.09
818.274	355.56
818.59	383.65
818.905	427.05
819.221	375.98
819.537	432.16
819.852	383.65
820.168	383.65
820.484	444.93
820.799	444.93
821.115	401.52
821.43	460.25
821.745	424.5
822.061	434.71
822.376	404.07
822.691	457.69
823.006	411.73
823.322	424.5
823.637	398.97
823.952	414.29
824.267	429.61
824.582	442.37
824.897	424.5
825.211	375.98
825.526	465.35
825.841	375.98
826.156	421.95
826.47	444.93
826.785	327.47
827.1	388.75
827.414	434.71
827.729	381.09
828.043	342.79
828.357	447.48
828.672	411.73
828.986	434.71
829.3	457.69
829.614	439.82
829.929	393.86
830.243	381.09
830.557	434.71
830.871	373.43
831.185	396.41
831.499	419.39
831.812	401.52
832.126	393.86
832.44	393.86
832.754	419.39
833.067	386.2
833.381	391.31
833.695	373.43
834.008	347.9
834.322	432.16
834.635	439.82
834.948	365.77
835.262	429.61
835.575	340.24
835.888	401.52
836.201	411.73
836.515	358.11
836.828	391.31
837.141	396.41
837.454	396.41
837.767	462.8
838.08	386.2
838.392	386.2
838.705	424.5
839.018	470.46
839.331	375.98
839.643	429.61
839.956	439.82
840.269	404.07
840.581	396.41
840.894	434.71
841.206	421.95
841.519	539.4
841.831	393.86
842.143	409.18
842.455	450.03
842.768	375.98
843.08	450.03
843.392	490.89
843.704	391.31
844.016	375.98
844.328	424.5
844.64	452.59
844.952	360.66
845.263	370.88
845.575	373.43
845.887	363.22
846.199	421.95
846.51	375.98
846.822	381.09
847.133	337.68
847.445	373.43
847.756	365.77
848.068	373.43
848.379	411.73
848.69	442.37
849.002	398.97
849.313	404.07
849.624	429.61
849.935	411.73
850.246	411.73
850.557	437.27
850.868	404.07
851.179	396.41
851.49	411.73
851.801	437.27
852.112	424.5
852.422	383.65
852.733	383.65
853.044	411.73
853.354	419.39
853.665	404.07
853.975	378.54
854.286	398.97
854.596	396.41
854.906	416.84
855.217	373.43
855.527	396.41
855.837	335.13
856.147	383.65
856.458	398.97
856.768	347.9
857.078	424.5
857.388	353
857.698	434.71
858.007	437.27
858.317	375.98
858.627	378.54
858.937	358.11
859.246	404.07
859.556	439.82
859.866	383.65
860.175	355.56
860.485	452.59
860.794	419.39
861.104	381.09
861.413	337.68
861.722	342.79
862.032	365.77
862.341	401.52
862.65	370.88
862.959	381.09
863.268	434.71
863.577	404.07
863.886	421.95
864.195	375.98
864.504	375.98
864.813	429.61
865.122	419.39
865.43	386.2
865.739	393.86
866.048	388.75
866.356	452.59
866.665	437.27
866.973	388.75
867.282	429.61
867.59	345.34
867.899	355.56
868.207	409.18
868.515	375.98
868.823	396.41
869.132	398.97
869.44	404.07
869.748	386.2
870.056	404.07
870.364	414.29
870.672	452.59
870.98	347.9
871.288	460.25
871.595	337.68
871.903	322.36
872.211	360.66
872.518	396.41
872.826	391.31
873.134	386.2
873.441	419.39
873.749	381.09
874.056	317.26
874.363	421.95
874.671	373.43
874.978	401.52
875.285	330.02
875.592	360.66
875.9	370.88
876.207	398.97
876.514	360.66
876.821	365.77
877.128	411.73
877.435	386.2
877.741	386.2
878.048	467.91
878.355	388.75
878.662	406.63
878.968	439.82
879.275	404.07
879.582	404.07
879.888	375.98
880.195	455.14
880.501	452.59
880.807	404.07
881.114	398.97
881.42	424.5
881.726	347.9
882.032	421.95
882.339	404.07
882.645	370.88
882.951	429.61
883.257	350.45
883.563	416.84
883.869	358.11
884.174	396.41
884.48	421.95
884.786	386.2
885.092	424.5
885.397	381.09
885.703	424.5
886.009	447.48
886.314	398.97
886.62	404.07
886.925	401.52
887.231	393.86
887.536	490.89
887.841	386.2
888.146	434.71
888.452	447.48
888.757	378.54
889.062	381.09
889.367	398.97
889.672	419.39
889.977	404.07
890.282	478.12
890.587	462.8
890.892	416.84
891.196	437.27
891.501	383.65
891.806	429.61
892.11	493.44
892.415	398.97
892.72	419.39
893.024	409.18
893.328	462.8
893.633	416.84
893.937	386.2
894.242	467.91
894.546	396.41
894.85	391.31
895.154	414.29
895.458	424.5
895.762	475.57
896.066	444.93
896.37	411.73
896.674	414.29
896.978	332.58
897.282	378.54
897.586	450.03
897.89	421.95
898.193	373.43
898.497	444.93
898.801	396.41
899.104	457.69
899.408	381.09
899.711	398.97
900.014	470.46
900.318	322.36
900.621	424.5
900.924	427.05
901.228	391.31
901.531	427.05
901.834	368.32
902.137	409.18
902.44	363.22
902.743	411.73
903.046	455.14
903.349	360.66
903.652	370.88
903.955	429.61
904.257	396.41
904.56	363.22
904.863	386.2
905.165	386.2
905.468	427.05
905.77	378.54
906.073	393.86
906.375	475.57
906.678	363.22
906.98	434.71
907.282	396.41
907.584	414.29
907.887	414.29
908.189	439.82
908.491	414.29
908.793	388.75
909.095	409.18
909.397	409.18
909.699	406.63
910.001	363.22
910.302	360.66
910.604	365.77
910.906	406.63
911.208	414.29
911.509	404.07
911.811	442.37
912.112	419.39
912.414	373.43
912.715	419.39
913.017	439.82
913.318	457.69
913.619	401.52
913.92	419.39
914.222	411.73
914.523	381.09
914.824	363.22
915.125	401.52
915.426	427.05
915.727	350.45
916.028	375.98
916.329	383.65
916.63	416.84
916.93	429.61
917.231	401.52
917.532	409.18
917.832	383.65
918.133	347.9
918.434	447.48
918.734	406.63
919.034	391.31
919.335	419.39
919.635	411.73
919.935	388.75
920.236	378.54
920.536	370.88
920.836	416.84
921.136	442.37
921.436	559.83
921.736	381.09
922.036	396.41
922.336	393.86
922.636	406.63
922.936	337.68
923.236	314.7
923.535	383.65
923.835	291.72
924.135	393.86
924.434	396.41
924.734	398.97
925.033	353
925.333	409.18
925.632	409.18
925.932	434.71
926.231	427.05
926.53	460.25
926.83	483.23
927.129	411.73
927.428	393.86
927.727	388.75
928.026	386.2
928.325	345.34
928.624	355.56
928.923	419.39
929.222	416.84
929.52	373.43
929.819	429.61
930.118	368.32
930.417	345.34
930.715	439.82
931.014	358.11
931.312	427.05
931.611	370.88
931.909	414.29
932.207	483.23
932.506	370.88
932.804	495.99
933.102	391.31
933.401	373.43
933.699	386.2
933.997	406.63
934.295	368.32
934.593	396.41
934.891	368.32
935.189	414.29
935.487	424.5
935.784	462.8
936.082	450.03
936.38	360.66
936.677	301.94
936.975	388.75
937.273	432.16
937.57	452.59
937.868	411.73
938.165	388.75
938.463	335.13
938.76	386.2
939.057	401.52
939.354	391.31
939.652	340.24
939.949	424.5
940.246	368.32
940.543	467.91
940.84	447.48
941.137	421.95
941.434	414.29
941.731	345.34
942.028	409.18
942.324	419.39
942.621	396.41
942.918	393.86
943.214	353
943.511	442.37
943.807	370.88
944.104	353
944.4	378.54
944.697	388.75
944.993	457.69
945.29	406.63
945.586	398.97
945.882	304.49
946.178	375.98
946.474	353
946.77	368.32
947.066	416.84
947.362	358.11
947.658	501.1
947.954	450.03
948.25	421.95
948.546	378.54
948.842	396.41
949.137	350.45
949.433	386.2
949.729	304.49
950.024	355.56
950.32	434.71
950.615	401.52
950.91	398.97
951.206	419.39
951.501	429.61
951.796	393.86
952.092	370.88
952.387	381.09
952.682	421.95
952.977	386.2
953.272	332.58
953.567	432.16
953.862	447.48
954.157	360.66
954.452	404.07
954.747	368.32
955.041	370.88
955.336	424.5
955.631	340.24
955.925	353
956.22	360.66
956.514	416.84
956.809	358.11
957.103	396.41
957.398	444.93
957.692	437.27
957.986	388.75
958.281	396.41
958.575	419.39
958.869	378.54
959.163	363.22
959.457	386.2
959.751	465.35
960.045	442.37
960.339	381.09
960.633	414.29
960.927	393.86
961.221	414.29
961.514	381.09
961.808	411.73
962.102	460.25
962.395	373.43
962.689	353
962.982	386.2
963.276	416.84
963.569	406.63
963.862	347.9
964.156	363.22
964.449	444.93
964.742	419.39
965.035	404.07
965.328	360.66
965.622	409.18
965.915	424.5
966.208	375.98
966.5	393.86
966.793	406.63
967.086	391.31
967.379	373.43
967.672	414.29
967.964	353
968.257	393.86
968.55	406.63
968.842	373.43
969.135	383.65
969.427	353
969.72	419.39
970.012	429.61
970.304	434.71
970.597	398.97
970.889	327.47
971.181	370.88
971.473	360.66
971.765	373.43
972.057	401.52
972.349	442.37
972.641	437.27
972.933	355.56
973.225	388.75
973.517	355.56
973.809	432.16
974.1	409.18
974.392	332.58
974.684	401.52
974.975	398.97
975.267	381.09
975.558	411.73
975.85	388.75
976.141	386.2
976.432	406.63
976.724	350.45
977.015	391.31
977.306	360.66
977.597	353
977.888	450.03
978.179	386.2
978.47	350.45
978.761	442.37
979.052	398.97
979.343	396.41
979.634	409.18
979.925	381.09
980.215	396.41
980.506	391.31
980.797	378.54
981.087	340.24
981.378	411.73
981.668	373.43
981.959	350.45
982.249	401.52
982.54	355.56
982.83	437.27
983.12	398.97
983.41	406.63
983.701	427.05
983.991	353
984.281	347.9
984.571	345.34
984.861	424.5
985.151	450.03
985.441	383.65
985.73	427.05
986.02	378.54
986.31	439.82
986.6	432.16
986.889	378.54
987.179	450.03
987.469	427.05
987.758	370.88
988.048	386.2
988.337	350.45
988.626	340.24
988.916	368.32
989.205	365.77
989.494	429.61
989.783	421.95
990.073	381.09
990.362	314.7
990.651	414.29
990.94	421.95
991.229	391.31
991.518	421.95
991.806	337.68
992.095	347.9
992.384	391.31
992.673	386.2
992.961	345.34
993.25	381.09
993.539	370.88
993.827	365.77
994.116	358.11
994.404	383.65
994.692	478.12
994.981	381.09
995.269	404.07
995.557	416.84
995.846	419.39
996.134	480.67
996.422	355.56
996.71	322.36
996.998	353
997.286	370.88
997.574	427.05
997.862	424.5
998.15	378.54
998.437	317.26
998.725	370.88
999.013	353
999.3	373.43
999.588	381.09
999.876	365.77
1000.163	411.73
1000.45	388.75
1000.738	373.43
1001.025	340.24
1001.313	327.47
1001.6	401.52
1001.887	421.95
1002.174	368.32
1002.461	386.2
1002.748	401.52
1003.036	396.41
1003.322	427.05
1003.609	437.27
1003.896	429.61
1004.183	330.02
1004.47	419.39
1004.757	383.65
1005.043	363.22
1005.33	396.41
1005.617	396.41
1005.903	432.16
1006.19	419.39
1006.476	404.07
1006.763	337.68
1007.049	398.97
1007.335	432.16
1007.622	370.88
1007.908	332.58
1008.194	309.6
1008.48	381.09
1008.766	355.56
1009.053	370.88
1009.339	393.86
1009.625	360.66
1009.91	427.05
1010.196	393.86
1010.482	396.41
1010.768	404.07
1011.054	447.48
1011.339	383.65
1011.625	393.86
1011.911	409.18
1012.196	393.86
1012.482	383.65
1012.767	388.75
1013.052	388.75
1013.338	381.09
1013.623	444.93
1013.908	388.75
1014.194	457.69
1014.479	391.31
1014.764	421.95
1015.049	347.9
1015.334	370.88
1015.619	444.93
1015.904	406.63
1016.189	355.56
1016.474	370.88
1016.758	396.41
1017.043	429.61
1017.328	358.11
1017.613	409.18
1017.897	401.52
1018.182	404.07
1018.466	411.73
1018.751	360.66
1019.035	370.88
1019.32	416.84
1019.604	434.71
1019.888	314.7
1020.172	314.7
1020.457	314.7
